7.02E+00
7.5068686
5.973965
7.1429209
6.9393913
6.3102147
6.6376012
6.9283276
8.1202631
7.8172729
6.2744095
7.916709
7.051695
6.7363832
7.0277019
6.6832314
6.7135026
7.3179556
7.2877438
7.2907993
7.0115045
6.3077444
7.0286366
7.370593
6.9431117
7.1475369
7.0322496
6.6463484
6.8700675
6.4651288
7.0927423
6.3303731
6.3596622
6.456808
5.6572393
7.2987351
6.8817978
6.477247
7.2732356
6.1189637
6.7217058
6.6695677
6.8795566
6.877179
6.4560654
6.7687445
6.7382457
7.0551033
7.2294749
7.2354704
6.496525
6.8489743
6.3652611
6.4029462
6.8174346
7.4140358
6.5517271
7.0090973
6.785509
7.3084978
6.4820987
6.9221942
7.1369451
7.3422257
7.5383736
6.9621849
6.3713355
6.6519761
6.5123921
7.790347
6.6594307
7.1501868
6.797931
7.1728227
6.5335312
6.2747901
6.2472592
6.9428496
6.6935654
6.6865696
7.2915925
6.8692109
6.8340887
7.3546614
6.428693
6.9909157
7.0427763
6.6387182
6.8107777
6.2733415
6.2800425
6.7292801
6.9605151
7.6583773
6.4602208
6.7801635
6.6591023
5.916
6.4355884
5.8378158
6.7347567
5.9973939
6.3074891
6.0660506
6.4036816
6.215152
6.783513
7.1869232
7.8611754
7.5972924
7.2890943
8.155538
9.3473537
8.4684319
9.2499184
8.556462
8.6681045
6.9055589
7.0559535
6.3676101
7.6191737
6.7490799
6.8764841
5.9636661
6.1844834
6.2779485
6.8114071
6.315925
6.7327574
5.7215068
6.377468
6.2015315
5.9393245
6.7502583
6.6656151
6.5925397
6.0804804
7.0022942
6.7111572
6.4679869
6.5885732
6.4818715
5.9244704
6.4730115
6.2686176
6.2332453
6.186878
6.42016
5.889927
7.0011453
6.8347848
6.6324987
6.6269767
6.3410535
7.0515413
6.6201043
6.4223778
7.1961519
6.6058136
6.4693834
6.5799767
6.3724153
6.2704639
7.6360952
7.3100548
6.8051851
6.2191553
6.3858451
6.6438804
7.0264192
6.2611072
5.8873649
6.2172509
6.8849141
6.9065787
6.9291733
6.7112028
6.8287994
6.5816603
7.0828641
6.249987
6.9304281
6.4421219
6.6345705
6.9670411
7.149184
6.3413964
7.2521707
7.0272519
6.7745814
6.7268813
6.7184971
6.6664732
6.7886316
6.7992104
7.1093959
7.3719182
6.9948795
6.7414534
7.0541606
6.8886265
6.4343079
7.1755243
6.9350079
6.8706288
7.0129818
6.9179079
6.4673732
6.7591976
6.7652963
6.6207389
7.4300199
6.4720018
6.5987905
6.5133238
6.3202071
6.6879981
6.6573489
7.3330778
6.6667296
6.3614064
7.3605635
7.2224403
6.673995
6.1958786
6.5934678
6.7015934
6.8633994
6.662183
6.9260805
6.9067812
6.2915671
6.404948
6.482424
6.5698006
6.6399307
6.7646702
5.6254432
6.5888284
7.2253502
6.3604746
7.1097212
6.8912102
6.7491361
6.8283362
6.1738194
6.7283363
7.3607467
6.7968355
6.7754962
6.4850222
6.7684589
6.8670239
6.9597004
6.6803671
6.7314376
7.577959
5.9741496
7.655023
6.9464321
7.1945657
6.196699
6.6190068
6.735853
7.0283252
6.2444382
7.0666473
6.4357367
6.914791
7.1543353
7.032498
7.2954927
7.266819
6.5962071
6.9162786
6.46629
6.3049335
7.146387
6.8000187
6.7594305
7.1212562
6.9826971
6.8911654
7.2282727
7.108246
6.8198016
6.4714302
6.4659652
7.1564933
6.0863004
6.680838
5.9600732
7.0722203
7.0127497
6.6904353
6.6634684
5.7587801
6.907674
5.8488391
5.7713301
6.6499386
6.2047532
6.6441209
6.6535572
6.6512576
6.0111313
6.3883112
6.3276915
6.6693986
6.7808138
7.1362977
7.1305836
7.5048667
8.3774544
7.6446
8.5010108
8.4541079
8.6167056
8.8229582
8.4192702
7.2398601
7.0235641
6.8113217
6.4506847
6.493044
6.5097913
5.9816895
6.2937695
5.5614392
6.8089871
6.1643785
5.9691066
6.3748868
5.9349105
6.4821879
6.3000069
7.3456715
6.9864041
5.6448089
6.7252959
6.0363374
6.4644709
6.5915764
6.8100585
6.4577322
7.150392
6.3998684
6.7026673
6.8289714
6.6119068
6.9099546
6.7010572
6.2863036
5.9238103
7.2961228
6.3935776
6.6587126
6.8309302
6.6625469
6.3011412
6.4648208
6.6232234
7.2439334
6.3675876
7.003892
6.8055926
6.6024094
6.2941184
6.583577
6.6575308
6.1396485
6.7619805
6.4020159
6.6747029
6.8359263
6.3711683
6.6020356
6.8611135
6.072392
7.1480174
7.6680647
7.1193366
6.6417298
6.9205376
6.3719793
7.4633411
7.1123341
7.0548948
6.4319475
6.8798347
6.5508949
6.6633563
6.5665068
6.4158188
6.4596358
6.7413844
6.1837026
7.0475725
6.7758795
7.0818655
6.920995
7.0051317
6.2645076
6.4378672
6.6525812
6.8610718
7.2427602
6.6913964
7.2725048
6.978067
7.2397571
6.8475471
6.5539943
6.2451525
6.8582373
7.1065826
6.6704132
6.5574523
6.6444004
6.3492788
6.5753467
6.6923054
6.7771695
6.7361105
6.9889712
6.8009442
7.4394266
6.8768663
7.4358603
6.48916
6.9572144
6.6625249
6.9847791
6.9824525
5.9412412
6.2629654
6.2202786
6.910508
7.3106534
6.6375941
7.0642498
6.9643282
6.3661186
6.9088684
6.4783832
7.327907
6.7478024
7.372752
6.6007974
6.9807681
6.736482
6.0026897
6.3921496
6.9894117
6.7394428
6.3409869
6.5253944
6.8734551
6.4080718
7.1651607
6.5600268
7.4974966
6.4155438
6.894605
6.2503103
6.5489691
6.6178023
6.9903177
7.2228693
6.9825449
6.750269
7.1954354
7.1892174
6.915022
7.0839567
6.9946098
6.4703405
7.1044909
6.5738499
6.5738066
6.8662742
6.6648268
6.7106276
6.982987
7.1520838
6.655856
6.8527295
6.6407459
6.7959939
6.8747981
6.4789573
6.7929382
6.9151385
6.7245733
7.3378998
6.4620691
6.4139395
6.0345952
7.0310148
6.9947596
6.6400767
6.9765178
6.6888048
6.7089134
6.6023026
6.654781
6.4580769
7.3739766
5.8030339
5.5454855
5.792766
5.950496
6.3275947
6.6969008
6.9581498
7.672753
8.0157969
8.5513675
9.3360331
9.2580894
8.4293656
7.7477067
8.647812
7.1124746
7.3150033
6.9232886
7.3941699
6.4140763
6.1399858
6.4183208
6.4220645
6.3862349
6.1320605
5.9420864
6.538543
5.9370379
6.1034027
6.9885974
6.3531028
6.4574435
6.847022
6.3975956
6.8955416
6.380758
6.9093377
6.7657128
6.4802167
6.2557592
6.1893112
6.4788476
6.4158973
6.4269339
6.9483799
6.4684997
7.0083568
6.3808855
6.9442676
6.3843948
6.646136
6.9435829
6.4449496
6.4558489
7.3703557
6.9761878
6.478196
6.8830561
6.505136
6.9043842
7.2002962
6.0690401
7.0753496
7.2360714
6.70778
7.344048
6.7481993
6.2266456
5.8684423
6.5851248
6.9772526
6.8488828
6.9149148
6.5438567
6.8139348
6.1462494
6.4753137
6.4533269
6.9546608
6.7546965
6.3272047
6.7564325
6.5016364
6.5102926
7.083661
6.8024804
6.929204
7.1110846
6.8675142
7.0063186
7.0357994
7.2184431
6.9582302
7.3289417
6.8084678
6.8020709
7.4572228
6.6290911
6.8189307
7.1645297
6.8761098
7.3462078
7.2073229
6.9292056
6.5287186
7.012252
6.2821491
6.8915662
7.082795
6.8597933
7.1094768
7.5436466
7.1260523
6.879972
7.0203297
6.9193625
6.2675797
6.6040361
7.2186981
6.7436758
6.9781425
6.3830226
6.7841643
6.9848351
6.2500543
6.8901883
6.6918919
6.4081039
6.7459422
6.0497527
5.9629815
6.3191917
6.3890032
6.3206491
6.1137533
6.8679538
6.1629098
6.8012817
7.0547902
6.759166
6.7948732
6.618364
6.2046742
6.7435881
7.1198702
7.4110473
6.5988693
6.1504979
6.8223043
6.9009277
6.6749973
6.3296831
7.5381994
5.8962573
6.6089936
6.3049945
6.5617427
6.919049
6.8317049
6.5337992
7.1110211
7.0731132
7.1124719
6.7105827
7.2827385
7.1374631
7.8296429
7.2683112
7.3033168
6.8898428
6.3874442
6.7009617
6.5561744
6.6087695
7.0079232
6.5714627
6.4247418
6.6066892
6.699741
6.9133133
6.403197
6.848849
6.7592219
7.2060391
6.6301585
6.639632
6.251277
6.1711597
6.8062987
6.5765556
6.8286737
6.30566
7.3548197
6.7157806
7.0621589
6.5850087
6.6091361
6.898454
6.8281547
6.1404165
5.9159407
5.9888014
5.7997322
6.2923117
6.0659689
6.1021642
5.780261
6.7319814
6.7845783
6.9264325
7.6724757
7.4026572
8.355323
8.6405062
8.9708108
8.5268656
8.8524157
8.1371548
7.5742425
6.9693245
7.3187065
6.3531576
6.3352364
5.907308
6.1987133
5.0994633
5.9228872
5.7957385
5.9800447
6.3001223
6.2781433
7.1482603
6.2558464
6.3963522
5.9222241
6.3311997
6.0088704
6.5213483
6.8295176
6.6614103
6.2475877
5.8992918
7.0568375
7.2978289
6.5751326
6.1892394
7.0286168
6.3580248
6.4040362
6.8919863
6.0411758
5.8271117
6.7175641
6.7100936
6.6156348
6.7660296
6.9853455
6.9434743
6.3670463
6.9033693
6.6848886
6.4306526
6.1930558
6.8823184
6.5075532
6.6373917
6.3230072
6.0392658
6.7042664
6.6467262
7.1390874
6.9902725
7.1045077
6.4095135
6.3393056
6.2346726
6.8965151
7.7746305
7.0325069
6.4704543
7.0733552
6.3373919
6.2264749
7.0287129
6.468641
6.8783503
7.2868077
6.9102384
7.1081976
6.1585582
7.0077737
7.5609608
6.9626799
6.1828754
6.7039143
6.5927416
6.9434589
6.9343249
6.9318743
6.6237485
6.5355469
6.5391736
7.0796876
6.065969
6.7023561
6.8812682
6.5355093
6.9387421
6.7332877
6.4085659
6.8204376
6.659554
6.6064851
6.4935791
6.783014
6.0685454
6.6108072
6.5564179
6.4184549
7.0044636
6.4849839
6.9624903
7.0954943
6.6712453
6.8140478
6.9495267
6.6796703
6.9125791
6.2371153
7.1259013
6.3393663
6.0250225
7.2085541
6.6665061
6.8581402
6.5739441
6.3277478
5.579034
6.9945683
6.6526243
6.6860866
6.8819166
6.1783931
6.4567915
7.1597235
6.9839259
6.2801052
5.9347831
6.5460438
6.8401509
7.1129606
6.7951042
6.3396461
6.8746692
6.3209103
6.4000768
6.5151482
6.2995394
6.6585119
6.4429301
6.6729983
6.6268033
6.6665179
6.6314031
7.2819226
7.0485855
6.8621251
6.2905656
6.261067
6.134116
7.8657575
7.2341961
6.9662504
6.4751052
6.4106374
7.0251145
7.4061911
6.1657702
6.6316814
6.748429
6.0139116
7.0450826
6.5546925
7.4061937
6.5435917
6.8432562
6.2621117
6.4559617
6.2522632
6.8170363
7.1275947
6.4176557
6.7834413
6.4310946
6.6582437
7.0680471
6.6850511
6.2316577
6.2989781
6.5363748
6.508212
6.2357151
6.5976665
6.9643692
6.3259263
6.2533797
5.4154357
5.9099116
5.6381597
6.0953386
6.5268546
7.1505297
7.5136133
7.1962218
7.5500728
8.3961949
8.7135856
9.0166194
9.2514989
8.2055622
8.7623895
8.0057147
7.2752529
6.8502188
7.1199609
6.1867185
5.8467585
6.3904093
7.0631202
6.3395712
6.4454714
6.0085862
6.9870657
6.4268134
6.6185456
6.0834096
6.7898757
6.6157518
6.057028
6.5048844
6.3412315
6.550918
6.4161572
6.4388737
6.1231296
6.3889133
6.7970972
7.1634549
6.0753355
7.4004427
7.0815816
6.5731133
6.4171852
6.268324
6.8719083
6.2998405
6.387005
6.8609525
6.6932798
6.8658703
6.7190438
6.4098468
6.3675419
6.8782738
6.3286105
7.0244547
6.8761518
6.687764
6.5812083
6.7369393
7.9408921
6.5778876
6.0369888
7.3372879
6.8484135
6.3773293
7.6203041
6.8763546
6.8001919
6.3986641
6.311138
6.0276531
6.5315985
6.315568
6.9526121
6.6110346
7.4225632
7.3257779
6.8214289
6.6540929
7.1915355
6.3305837
7.012329
6.5093885
6.610062
6.5083812
6.9755977
6.4685706
6.3616507
6.9671141
6.6014077
6.8954299
6.6282024
6.8609546
5.7995038
6.9344861
7.454238
7.1492584
7.1011698
6.6702104
6.8277915
6.8514819
6.7961033
6.4489539
6.6280665
6.6945393
6.5799747
7.0734312
7.7107207
6.2643546
6.8080689
6.2197672
7.2478452
7.2880723
6.1373064
7.4879932
6.3537339
6.8449534
7.1715961
6.8151285
7.5898253
7.7609509
6.7618059
5.9957219
6.5732945
6.4123464
6.4435671
6.3376299
6.7892851
7.5490231
6.4918845
6.6249349
7.1668949
7.1842536
6.9118559
7.1442872
7.0861242
6.6170153
6.9206388
6.6479628
6.4229607
6.9977394
6.7852643
6.6899153
6.8692644
7.129934
6.9071708
6.8328678
6.8647915
6.7991842
6.4899292
7.0946835
7.3476961
6.6199572
7.5420282
6.7539877
6.728705
6.4838101
6.5232359
6.4830701
7.0025528
7.4681548
7.0875602
7.2099354
7.3925791
5.9338176
6.8072418
6.9722194
7.0886423
6.3112771
6.4232589
7.0761449
6.716339
6.9671559
6.3701973
6.1180709
6.9951021
7.1569447
7.3212754
6.1161293
6.1892915
6.1179813
6.6243954
6.4094661
7.1322073
6.0950152
6.0174155
6.7168954
7.0868036
6.3393083
6.1459649
6.564069
6.0270806
6.6264962
6.9302666
6.6415523
5.7949059
6.2189372
6.246876
6.9692643
6.5626512
6.2186208
6.7804122
6.0787016
6.5095591
7.5090647
7.8927068
8.0735571
8.4238078
8.3604706
9.1889969
8.5598205
9.0351826
8.5055617
8.406719
7.2804942
7.1682617
6.9370792
6.0435193
6.4185204
6.9282401
6.4021135
6.2644067
6.5510386
6.2969629
6.5859763
6.3895247
6.4631353
6.6625854
7.0002456
6.6792464
7.1273904
5.7502915
6.3417341
6.6183896
6.2171919
6.0821001
6.7911061
6.759483
6.6383857
6.6780628
6.2339369
6.3735944
6.5400468
6.3223785
6.7043036
7.4658781
6.3993839
6.8224971
6.1925636
7.0817206
6.2170154
6.6581729
6.3483103
6.7717718
6.5842526
6.5635244
7.6845616
6.3440207
6.5824417
7.6049081
6.1905152
6.8471217
6.2368202
7.0260187
6.762674
6.8842487
6.5655546
6.7818348
7.2415194
5.8578769
6.0782626
6.8456109
6.444761
6.5790048
6.1293397
6.3711007
6.5786167
6.4881575
6.4354642
6.6020003
6.406931
7.262593
6.3897888
7.4408975
6.6197574
6.2162609
6.5282771
7.1100107
7.1554908
6.820012
6.8676437
6.9970503
6.2135263
6.5421248
6.0745306
6.5917916
7.1155441
7.0287126
7.6168899
6.8224467
5.9523017
7.3927525
7.2402691
6.5417797
6.8433787
7.051938
6.9040893
7.0208193
6.7177832
6.7454589
6.792993
6.46424
7.2929598
6.7623715
7.0171165
6.4397907
6.3572783
6.7259289
6.6653261
7.2075128
6.9869968
6.9624458
6.2188082
6.3975572
6.8356769
6.6297048
7.2431933
7.2623196
6.5424664
7.0877758
7.2826558
6.8802227
7.3680263
7.1579268
6.8401916
7.0884004
6.8328138
6.6046051
6.8942582
6.7735669
6.62343
7.4233228
6.8428763
7.7826435
6.6490734
6.9713529
7.3527593
7.7822137
6.8736978
6.4640143
7.0609003
6.2856398
6.677433
6.9018258
7.3579017
7.3182711
6.7696771
7.1260519
6.6796667
7.0676196
7.5573597
6.9287132
6.7574362
6.7027155
7.1583493
7.390872
7.6861583
6.9102425
6.9310639
6.6330242
7.4437599
6.7917412
6.6427524
7.6180918
7.0833352
7.0483011
6.3833705
6.8925466
6.9248161
6.3009076
6.6054303
6.5383394
6.8877059
6.3128492
7.0978872
7.3585121
6.5562309
6.6367427
6.8297565
7.0906695
6.835518
6.7887108
6.4591666
6.5532944
6.8697391
7.2502997
6.8128878
6.1282903
6.6921997
6.4554968
6.308591
6.2479044
5.9604896
6.099845
5.9962028
6.2233059
6.6239229
6.8652977
7.0992274
7.5028405
7.9926177
8.5916463
9.1500258
9.1422503
8.6226283
8.7839825
7.9780375
6.9130376
6.2308583
6.0281851
6.4211857
6.0979236
6.0602691
6.3252279
6.0831832
6.1238451
6.6083307
6.693018
7.3326053
6.5532645
6.4918433
6.2749622
6.4168846
6.4910739
5.852387
6.4136085
6.7907356
6.3162243
6.7151116
6.931337
6.9634352
6.8509606
5.7335929
6.3686167
6.9176472
6.7278229
6.5818182
6.7436448
7.0032607
6.6375937
6.2958616
6.5325212
6.5221739
6.9558696
6.7744269
6.8250696
6.6753706
6.4843154
6.6629
6.7511655
6.1463432
6.7569946
7.0374201
6.6487336
7.2789304
6.8999278
6.5325629
6.6323409
6.5869263
6.7803099
6.9726624
6.5806672
6.8617075
7.3674309
7.0788832
7.0690969
6.4548198
6.5599176
6.850846
6.722303
6.1513497
6.1927836
7.1443519
6.4760488
7.5384292
5.9277707
6.9280812
6.7602345
6.476756
6.911437
6.4626681
7.1020257
6.8050454
6.1859791
5.8918272
6.6936935
7.2291536
6.8678557
6.820319
7.0575932
6.2981092
7.3538606
6.4852144
6.8341445
6.6838277
6.8760153
6.0916946
7.390764
7.0244293
7.572804
7.3306039
6.8043
6.4282858
6.1287042
6.7663564
6.8420845
7.1517047
6.4038162
7.0576857
6.7867535
6.4702211
7.0499568
6.8594991
6.6719429
7.4631264
6.9881863
6.7186977
6.8639197
6.7926024
6.825018
6.9298893
6.5339566
6.4614804
6.8950785
7.4660477
6.6450821
6.3806915
6.6706545
6.5787157
6.6373954
6.9381019
6.7113076
6.5373892
6.5937903
6.2646559
6.4380725
6.2307705
6.5667412
6.3535842
6.4951388
6.6470174
6.3103836
6.752748
6.8874834
6.3992287
7.1972118
6.1859355
6.6532561
6.2439213
6.6709223
6.3241367
6.6046997
6.5625736
6.396166
6.0966214
7.0816391
7.6191391
7.7227316
6.7056584
6.8727699
6.7155578
6.9184456
6.5458814
6.1510775
6.8263505
6.3811379
6.1074568
7.7092579
6.712602
6.9512707
7.2266306
6.1289856
6.9147418
6.9479251
6.7611112
6.7891021
6.5122629
6.9808172
6.3716604
6.39172
6.96167
7.3216832
6.5452788
6.5008265
6.8428412
7.0716434
7.0325511
6.7411811
6.4023876
6.8558733
6.5903236
7.1157265
6.032564
6.5428973
6.8830552
6.1246251
6.0359763
5.8903139
6.2056056
6.3248948
6.6712154
6.509148
7.250914
7.373823
7.8818955
8.1560692
8.584201
1.02470691
1.00062671
8.9895699
8.3348617
7.0812828
6.8910448
6.438006
6.7104932
6.5108994
6.3706286
6.1825488
5.9832301
6.3319932
6.7866603
6.5200651
6.4678043
6.6662544
6.658825
5.8845697
6.4970318
6.3504594
5.7481696
6.0124001
6.3901891
6.8191591
6.42412
6.6282242
6.1936682
5.7519976
6.6151759
6.2237418
7.0191852
7.2298678
6.4407839
7.0267788
6.9371821
6.0700051
6.5875066
6.6977998
6.7958839
6.8534857
6.8525901
6.8740895
6.5029255
6.7820431
5.796193
6.2024026
7.0901877
6.3925251
6.7626849
7.2348583
6.3370655
6.3307068
6.5054555
6.8551946
6.593307
6.3037694
6.0808641
6.5513212
6.6071715
6.4895398
6.5918802
6.2797201
6.8957115
5.8955114
6.7841644
7.0105817
6.4420771
6.7386173
6.8692865
6.529799
6.75489
6.9143542
6.4089973
7.0728021
7.1699516
6.880296
6.7656604
6.3238476
6.9453391
6.3046124
7.3558183
6.9571875
6.8591859
6.6125807
5.9448786
6.3121761
6.8968311
7.6635634
7.0372543
6.8960133
6.5770026
6.8258003
7.1404149
6.6848755
7.4685437
6.3029625
6.6190831
6.779637
6.028168
6.9717742
6.7891374
6.7902261
7.0576521
7.1509063
7.0604525
6.5844052
6.7425492
6.8923833
6.2892743
6.3719618
6.6000842
6.7590903
7.4007802
7.0286092
6.5642645
6.5243784
7.3344725
7.7838281
6.8227131
6.5506445
6.2009005
7.0951748
6.8385122
7.1964954
6.4196508
6.8501057
6.5150316
7.2375251
6.5535555
6.7272616
6.6297264
7.1322816
6.9204677
6.3838896
6.5230313
6.3683368
6.949409
6.8843309
6.1474679
6.0458066
6.7448689
7.0211288
6.8232238
6.2017821
6.1987835
7.1047578
6.7255516
6.6353359
7.2929749
6.52169
6.8907286
7.0264864
7.1770801
6.570008
7.0238311
7.9194186
6.3033252
7.0325438
6.7839421
6.5602207
6.5283868
7.0064847
7.6673013
6.5026782
6.9826126
6.5706076
7.5003087
6.9639987
6.6783485
6.96217
6.707909
7.1246936
6.6204885
6.2699809
6.7823059
7.2746754
6.2418139
6.5992313
7.0463512
5.9508306
6.9042563
6.972016
6.7699588
6.4015143
6.6873278
6.7049023
6.9702917
6.8285159
6.3788228
7.0267136
6.3409608
5.9856101
6.0757929
6.5415863
6.3831167
6.732917
6.6659265
7.8214212
6.6461452
7.5142172
8.0584543
8.5634287
9.2753896
9.0121948
8.6669735
8.5356946
8.301467
7.27178
7.278849
6.1038312
6.5004875
6.0072585
6.0854754
6.4158193
5.8886097
5.9595868
5.7922459
5.5453273
6.3432486
6.8754976
6.3718571
6.3823744
6.0979532
7.1030208
6.436584
7.0446656
6.6955771
6.4614756
6.9353095
6.8979637
6.4882595
6.9953891
7.1971714
6.5054244
6.4642366
6.7315543
6.711748
6.8824475
6.4842704
6.8478406
6.9727447
6.6464995
6.6374166
6.1102017
6.1407358
6.0326274
6.1139608
6.5219086
5.9751455
7.4412477
6.8968925
5.8455782
6.1875713
6.599852
5.9984533
6.4677498
7.0486263
6.6086198
6.6448156
6.3148607
6.481881
6.1837842
6.8264128
6.5206289
6.9834041
7.1533982
7.0934569
6.6769505
6.5012351
6.2315524
6.7543867
7.069364
6.6023069
6.6950849
6.990831
7.0835748
6.2293049
6.8348906
6.8333456
6.7033944
7.0943859
6.6235952
6.4505569
6.8633781
6.9322138
6.6785344
7.0581822
6.1914355
6.3573975
5.6093422
6.9552893
6.4088192
6.6851936
7.1580131
6.7991062
6.615039
6.4622118
6.6899708
6.9858229
6.192098
6.7344006
7.0530397
6.2278772
7.0107059
7.0159014
6.4296022
6.196497
6.9222293
7.0627264
6.9768371
7.0457197
6.2872427
6.948676
6.4927615
6.4997439
6.1272501
7.1420752
6.7955668
7.1058955
7.2759373
6.2840552
6.930838
6.6852208
7.0524295
7.1448791
7.0673017
6.4537693
6.7126259
6.8589328
7.9430042
7.2194207
7.6291774
6.9152472
6.83934
6.9896573
6.5623249
7.2250329
6.7009606
6.2455272
7.0861662
6.172517
6.0692482
6.8680218
6.403843
6.4188918
6.6993431
6.5768853
6.6965586
6.8819006
6.3623351
6.3614718
6.0336552
6.6738374
7.088802
6.576972
7.0577687
7.0723707
7.2610787
7.2605645
6.6319994
6.5490776
6.8881241
6.5909839
7.3841142
7.3368114
6.8556327
6.6400226
6.9913194
6.5341974
6.7131759
6.5313175
6.7495466
7.1126156
6.9680899
7.1183284
6.3474003
6.7573434
6.3016941
6.8141348
6.7619877
7.1255238
7.0317086
6.86466
6.4308284
6.4417199
5.8516023
6.4520907
6.0190104
6.9482596
6.9178152
6.6317946
6.4182701
6.5435837
7.0411558
6.8353018
6.0720392
6.2630773
5.7403259
6.3900909
6.6368106
6.9371053
6.2664931
7.4290021
7.3163146
7.928964
8.8051437
8.8016908
8.8286717
8.8972474
9.0821898
7.7264749
6.9643296
6.6046909
6.266327
6.2186027
6.5259918
5.5087897
6.3783786
5.9984478
6.7018331
5.9895545
6.3328307
6.0088339
6.1447267
6.3225666
6.3543063
6.273435
6.9126037
6.6960507
7.2048322
6.4061397
6.909499
5.723745
6.7491395
6.6491297
6.3698538
6.7704378
6.8387096
6.8971296
6.6872298
6.7551262
6.3075512
6.1698087
6.4797661
6.6498711
6.9361696
6.2839168
6.3966695
7.694068
6.3468151
7.2992358
6.9399915
6.3710788
6.5600905
6.5194129
6.7973422
7.1514911
6.0265723
7.4279732
6.9813154
6.4844127
6.6628033
6.8022057
6.8009288
7.1397447
7.0983165
6.5556503
6.6613365
7.0048162
6.8050693
7.1856048
6.502774
6.9366655
6.8679966
7.2813093
6.2560518
6.7602799
6.7800361
5.8828561
7.2274651
7.8121778
6.6730368
6.8675058
6.5859857
6.9039435
6.6177383
6.7218797
7.366067
6.4426761
6.5643071
6.7515673
6.7503837
7.3590832
7.5807951
6.4536216
6.5599092
6.9949405
6.6574115
7.5464085
7.4127035
7.0093765
7.0111064
6.653256
7.0660187
7.1822755
6.8130245
7.4821689
7.0111827
6.7187586
6.8989413
7.1707217
6.6108708
6.7279906
7.6488979
6.5824963
7.1144452
7.0664366
7.3551377
6.957014
5.8366778
6.4406917
6.9516669
6.8565478
7.4950207
7.2867252
6.9460855
6.7910236
6.1800286
7.4578332
6.8101987
6.1809557
6.9222828
6.7985608
6.5463809
6.9446729
6.495006
6.2551068
6.0729389
6.5937379
6.4951264
6.8948551
6.1971965
6.6820069
6.196266
7.4378255
6.7161888
7.2192678
6.9453774
7.1003077
6.3276956
7.2310085
7.3040357
5.9821451
6.6938977
6.5157673
6.8386286
6.481554
6.9245147
7.0436372
6.9316569
6.8256742
6.3870615
6.8915601
6.6948883
6.3909496
6.8489405
6.7614657
6.9119503
7.191671
7.0158282
7.269072
6.5068437
6.4361797
6.724448
7.2780729
7.2482846
6.6828779
6.5064452
6.1404527
6.9616335
6.6985562
6.2488677
6.5646861
6.0047906
6.8510495
6.604832
7.2809702
6.1308359
7.0034964
6.6937993
6.6709386
6.9084214
7.0870109
6.2388414
7.0939854
6.1268019
6.0876979
6.1680974
6.6358367
5.8892538
6.3653652
6.3742677
6.3277246
6.5377105
6.120719
7.1573844
7.2025182
7.8034354
7.6116327
8.439488
8.9986986
9.2898393
8.6984079
7.8657729
7.6791936
7.6818854
7.4574791
6.9034599
6.3005438
7.200624
6.3570973
6.6341723
6.1743038
5.9424079
6.6166564
6.7686531
7.0824963
6.2218711
5.8302567
7.0757491
6.5889305
6.0878354
6.3005647
6.2070528
6.9448459
6.7317688
6.6009194
6.6000691
6.2023129
6.9019631
6.6597397
6.4621943
6.4908171
6.5218959
6.2277643
6.8076775
7.0514415
7.4565817
6.7487394
6.2519458
6.6552763
6.2028156
6.350341
6.33319
6.2679199
6.7216444
6.1622564
6.8499105
6.8978862
7.0085852
6.6123476
6.8518245
7.2953246
6.6398483
6.5733725
7.3338707
5.7303455
6.5189878
7.6002806
6.5134202
6.500133
6.2506354
7.0269939
5.9697368
6.4605922
6.9723565
6.7594596
6.9936865
6.8073575
7.0150142
6.2778075
6.8416821
6.1732535
7.0533727
6.6436783
7.0054471
6.5586954
6.883091
7.1547951
6.0385177
6.0805831
6.1137042
7.1178341
6.95176
6.5369001
7.341457
6.8316101
6.1856673
6.4182863
6.2811706
7.1576459
6.5748547
6.3610766
6.5838474
6.4867209
7.1194737
6.998781
6.9332318
6.955726
6.8160959
6.4246138
6.9628556
6.4524523
6.3585256
6.3577066
7.0856848
7.1274458
6.1012445
6.7045317
6.854363
6.5313848
7.0450196
6.8552948
6.7027572
6.5512257
7.0135721
7.0780983
6.9357757
6.6701915
7.1049485
6.420334
6.8140992
7.2830151
6.6889497
6.4439473
7.4879009
6.6675173
6.9254053
6.459013
6.8677221
6.9349183
6.7617085
6.8821348
7.2111694
6.2340984
6.8369924
6.0142118
6.7706404
7.4830608
7.1124961
6.7574065
6.633314
6.9578582
7.1558542
6.765521
7.3647973
6.4744273
6.0317535
6.5197702
6.7453521
6.6803854
6.5226232
7.340853
6.2346199
6.6857932
6.506955
6.6924263
6.6404931
7.0491718
6.4800791
6.532628
6.8778774
7.2259979
6.1254
7.4740846
6.4710112
7.0226037
7.1731071
7.2555552
6.5362269
6.739107
6.6491866
6.463154
6.791767
6.8243273
6.5580429
6.7395745
7.671371
6.6671662
6.9360389
6.4967592
6.4922871
6.5604879
6.9014511
6.3697892
5.945992
6.6599317
6.4565438
6.7248748
6.6316885
6.8030864
6.8273707
5.8834916
5.7189799
6.4281828
6.2947567
5.9182441
6.7934602
6.5923644
6.8462816
7.282602
7.8424674
8.5509897
8.3218788
8.0217848
9.2895858
8.3825231
9.0458116
7.8892112
8.1786239
6.8981266
6.3432839
6.9184149
5.8694787
6.6149083
6.4939837
6.2763402
6.2020814
7.1307383
6.2397206
6.3287607
6.0884045
6.1853235
6.2914098
7.1502906
6.363771
6.2515409
6.3421221
6.7775646
6.0372022
6.7648841
6.061373
6.5309918
5.8957491
6.7807259
6.8395075
6.3224831
6.6989457
6.6409914
7.0141386
6.6280868
6.9693216
6.5362642
6.337185
6.5657744
6.5053443
6.9102232
6.5789716
6.30492
6.5820043
7.0851797
6.4845994
6.3933198
7.0085467
6.707914
6.5541511
6.4132773
6.1557356
6.7474443
6.5712634
6.8094486
6.1444608
7.1850837
6.8724788
6.1032313
7.0859142
6.4899269
6.823195
6.7921981
6.401076
5.6582831
6.9605884
6.6318924
6.5360762
6.9169008
6.501685
7.0113898
6.8165176
6.3887086
7.0734287
6.937724
7.2289898
6.4256745
6.4246814
6.877354
7.0098325
7.0901652
6.782438
6.7116483
7.0645095
7.5558017
7.1513147
6.8316627
6.5848199
6.987178
6.6186821
6.8893081
7.0914873
7.1461798
7.0202829
7.3160955
7.4733556
6.0492432
6.0938065
6.4144313
6.0116906
6.6262507
6.6340035
6.8537953
6.8671799
6.5030005
6.4553789
7.0571633
6.6169451
6.2464252
6.7638606
6.8364562
6.5760533
6.9785321
6.7945651
6.6302811
6.6935072
6.9016087
6.5946703
6.3648772
6.701727
6.8083714
6.9508028
6.7487174
6.5886972
6.9833533
6.7174787
7.0622652
6.726365
6.7576433
6.7255942
6.4149568
6.4128169
6.3999816
7.4284953
6.6850206
7.1122245
6.890774
7.4563802
7.1072282
6.3004494
6.6374349
7.0939598
6.8679379
7.6284128
6.762063
6.1987604
6.9463282
6.4584847
6.8385154
7.2437744
6.9554262
6.9822275
6.7961332
6.8351585
6.8513955
5.8416612
7.0172984
7.24089
6.3539808
6.2499576
7.0325954
6.2353682
6.1509919
7.0755054
6.5349432
7.2262696
6.2759916
6.4998987
6.8205252
6.9157548
6.8851491
6.7617089
6.6039282
6.4730585
6.8699608
6.5451146
6.8479131
7.0773925
5.8275288
7.3158552
6.4032663
7.11307
7.2011378
6.0698309
6.686271
7.918263
6.4996131
6.7421337
6.6139307
6.8948837
6.7684443
5.9155137
6.0557633
6.3085509
6.2181254
7.2594567
6.6942915
6.9238691
6.8162544
7.0202842
8.2574405
8.3261163
8.9131356
8.6185772
9.1355732
7.9607716
8.7667901
8.0270508
7.2812577
6.3451177
6.4111058
6.4552441
6.7823689
5.9228944
6.815088
7.3967808
6.1944713
6.5755728
6.1738141
5.7969259
6.9907725
6.7299842
6.2787221
6.5324684
6.4039274
5.9625184
5.4304415
6.4922213
6.3367867
6.2940214
6.1931486
5.8293674
6.3145895
6.5704647
6.1123063
6.6787292
6.4078254
6.472001
5.9947385
6.2436959
6.7136141
6.2641363
6.64054
7.3208099
6.8778614
6.9685383
7.4640448
7.0202359
6.7289708
7.3108263
6.2611674
6.3645048
7.3759367
6.790171
6.6042302
6.7916033
6.5210667
6.510639
6.4951275
6.4625059
6.3165334
6.6675843
6.4547559
7.2100366
6.7582149
7.0725493
6.6376275
6.6594556
7.1812674
7.260029
6.7423378
7.3939056
6.9381807
6.8980304
7.5809983
7.3351799
7.0998079
6.9106635
6.5583529
6.7168469
7.4424171
6.0028591
6.5214246
6.6892851
6.8155354
6.0918604
6.9581585
7.0333159
6.4078792
6.6628859
6.3054754
7.3684635
6.8998964
6.6660303
6.4133771
6.7969525
7.390835
6.8630964
6.892322
6.3104079
6.8222223
7.0507059
6.2425932
7.1825889
7.6834128
6.1764932
5.9859518
6.7328087
7.0443198
6.7294133
6.700645
6.7624338
6.3312587
6.1142833
7.3023582
6.8195965
6.2651897
7.1129844
6.2440787
6.6843918
7.0074507
6.4151152
6.5991082
6.7710984
7.4912476
6.931924
6.6104406
6.6755838
6.655022
7.2494244
6.6534893
6.4634705
6.8501221
6.724551
7.0571004
7.1193512
7.1671666
7.0023924
6.9969172
7.4728586
6.3255207
6.6299178
6.1251256
7.1043495
6.7680644
6.6478842
6.1154058
6.8487031
6.6827191
6.2925734
6.3664883
6.5146034
6.7262521
6.2224675
6.7718367
7.1006013
6.7289193
6.6285559
7.0039069
7.3024016
6.7027262
6.6951963
6.3322236
6.5038034
7.0669335
6.7774315
7.0863611
7.0509053
6.9207471
7.0471444
7.3306055
6.9460454
6.8695452
6.6939205
6.2247192
6.5008739
6.8120453
6.2537243
6.8453551
6.7608324
6.6774623
6.7529002
6.648923
6.6317396
6.6367198
6.9881208
6.5861292
5.6307777
6.417916
6.673399
6.9194571
7.0469907
6.1373815
6.7049777
6.4191114
6.1919552
6.2092659
6.1494787
6.2925705
6.3989862
6.2784762
6.3886027
7.521721
7.4776918
8.5498043
8.1238525
8.5074688
9.5123286
9.3472094
8.2845951
8.2573477
8.1923037
7.6991595
6.2287518
7.1161512
6.577814
6.415151
6.2455121
5.998194
6.4155883
6.2838427
7.2652433
6.4911855
6.4050528
6.4847456
6.2805032
7.2859779
6.7485928
6.538051
6.9307117
6.4975922
6.4733893
6.321522
6.2994692
7.160974
6.8678345
6.6125603
7.2183556
6.5888519
6.6886335
6.0481869
6.7580103
6.037917
6.2098468
6.9355833
6.7115484
6.2532931
6.4308843
6.6760462
6.662409
5.9389921
6.148393
5.9359678
6.5928488
5.9753687
6.8828846
6.2434091
6.2055957
7.2906415
7.4499056
6.3331454
6.6261233
7.3752292
6.4376471
7.3132788
6.9970534
6.7107949
6.5777394
7.344157
6.9763189
6.4730028
6.8570929
6.4011657
6.7857864
7.333754
6.9591998
6.4754721
6.890335
6.498643
7.51632
6.0881826
6.5129861
7.0489424
6.4527471
6.7666999
7.0051515
7.2310621
6.4127688
6.6963735
6.5833384
6.7172147
6.8983887
6.5283021
7.0596774
6.919816
6.5830919
6.8633558
7.1286352
7.1319613
7.030273
6.7556553
6.5477465
6.8439367
6.585412
6.6356192
7.1063828
7.3019731
6.9831647
7.5290379
6.1872302
6.7684975
6.7956882
7.3647093
6.9477483
6.638708
6.9675779
7.0006226
6.8284009
6.0006232
7.1431877
5.4522679
6.8010086
6.1789598
6.6269957
7.2838197
6.5676816
7.478066
7.0515481
6.667692
6.4215887
6.5742633
6.9002644
5.8721341
6.9903671
6.8646716
7.0667001
7.526879
6.6387439
6.3927449
7.2018236
7.0950596
6.7064664
6.5377198
6.8532302
6.3368481
6.7847553
6.5410699
6.4731342
7.1625401
6.831367
7.3260436
6.4131063
6.9099896
6.4281603
7.0517363
7.3287913
7.2533413
6.0976986
7.1653367
6.933262
7.0551997
6.7249704
6.3116356
7.2443894
6.720086
6.7864791
6.9730557
7.8601179
7.7490615
6.3761049
6.6624162
7.1898169
6.0235627
7.2459411
6.6419293
7.2840956
6.4304467
6.4144945
7.6268431
6.9502362
6.6139787
6.3231106
7.1232522
6.8181345
5.8420375
6.3516807
7.8024032
6.685593
5.9410869
6.3574002
6.5327285
6.9501494
6.6290421
6.7280448
6.6633112
6.2603163
6.999266
6.3531897
6.2464328
6.403032
6.2849257
6.0946646
6.4276043
7.281416
6.932733
6.7346425
7.0543242
7.6905225
7.6097252
9.3238221
8.8765069
8.5442584
8.7751735
7.9293405
8.1781136
7.3720334
7.0357345
6.7555253
6.7897527
6.0267057
5.7805266
6.2910864
6.0517837
6.5391738
5.7053412
6.7615732
6.5847576
6.0736725
6.3711797
6.8238155
7.4188153
6.398502
7.077604
6.2376476
6.6574894
6.5022834
6.7074408
6.3934356
6.0476268
6.4785835
6.7446727
6.3904275
6.5109537
6.7305659
6.7819641
6.3052379
6.4794832
6.9060764
6.703884
6.0751549
7.1797444
6.3690431
6.3383552
6.0868026
6.558938
6.5615299
6.4991288
6.3255385
6.0480524
7.8183054
7.2521291
6.5755422
6.6469728
6.8244239
6.685454
6.4763758
7.0398361
6.2636516
7.4230696
6.029595
6.5888974
7.0368232
6.7541644
6.1670415
7.0752668
6.8211422
6.4548708
6.9112067
7.0432134
7.5781663
6.7248744
6.6498072
6.5709287
6.0382562
6.9552794
5.9905349
6.6589343
6.6569887
7.0765429
5.7220737
7.1038584
6.585517
6.2957115
6.7767347
6.8674006
6.6011205
6.2296285
7.2318561
6.8739131
6.5552448
7.2755817
6.9575211
6.3452611
7.0526099
6.1275253
6.4037938
6.8567599
6.934036
6.8064044
6.0559987
7.0866465
7.2525821
7.19722
6.546387
6.6124685
6.3789273
6.8537128
6.8544316
6.4710481
7.1044092
7.0791695
7.0061219
6.4777953
6.2586737
7.0042863
7.3020447
6.2767925
5.9329385
7.2978841
6.7369011
7.201139
7.129117
6.3035901
6.5982431
6.4472787
6.8272979
7.1968303
6.7809691
5.9734443
7.2226717
6.7610006
6.5878838
5.9722702
6.9000497
6.8518306
6.8868124
6.3562184
6.4865229
6.4367961
7.4495153
6.4927237
6.7463232
6.486603
7.1611144
6.8154061
6.8472721
7.1718517
7.0729053
7.1143789
6.0411972
6.9223731
7.2319154
7.0010878
7.2277685
7.684476
7.3776492
6.4893188
6.6190975
6.8643886
6.6693221
6.8604299
7.2999809
6.6209807
6.6928415
6.7147519
7.0526378
7.168341
6.7240199
6.6412394
7.1096712
7.0309009
6.9428461
7.9833315
6.7418733
6.8578221
6.6787141
6.9408761
6.4933653
7.0674294
7.3750772
6.721944
6.6644095
6.478958
6.5126262
6.0519533
6.6698795
6.3398989
7.1103852
6.6583693
6.5805746
7.0138179
5.7549435
6.4834696
5.8937701
6.0490307
6.3867972
6.7739778
6.286649
7.0971777
7.7262368
7.2597351
7.6084075
8.3556181
8.944805
8.7805615
8.5342506
8.5331277
8.2075561
7.4534925
6.6903285
6.9630602
6.4964004
6.2640463
6.0735745
6.1226068
6.005199
5.9404405
6.8339583
6.3095637
5.7724036
6.2571329
6.8871594
6.3084383
7.1956892
6.2380368
6.2779797
6.1730473
6.9659074
6.3127254
6.6862976
5.9427065
6.3455085
6.8269107
6.1004347
6.5987736
6.7854004
7.2461045
6.8201146
6.934581
6.4473163
6.3632081
6.6011517
6.2454123
7.0002663
6.8705811
6.9404959
7.0522177
6.5595799
6.4038298
6.8368719
7.0714583
6.9614997
6.9941588
7.2041104
6.7806167
7.1409859
6.6855632
7.0057017
6.1642983
7.2675848
6.0252213
6.7670272
6.5803295
6.2759112
6.8557814
6.8844393
7.2885584
6.811261
6.9763465
6.8510469
7.3097058
7.1834409
6.7639901
6.8065683
7.4264733
6.6703074
7.081355
6.4310185
6.4746185
7.0831491
7.0028181
7.1763009
6.5428427
7.1812807
6.8443935
6.7622189
7.4126574
7.2982348
5.9368747
6.9135205
6.4815481
6.7078053
6.5824467
7.4284364
7.284834
7.0279764
7.0834601
6.9916018
7.0761813
6.9141187
6.7331426
6.9901651
6.6639295
6.6122914
6.6589714
6.7269915
6.7630073
7.708266
6.301843
6.3585834
6.8521595
6.7410438
6.4865273
6.8824707
7.0420274
6.3278818
6.6072363
6.2776238
6.7913034
6.8213499
7.0156535
6.3531087
6.8714237
6.7063249
7.2813463
6.87489
6.5588015
6.6742551
6.5591625
7.2989752
6.5685713
6.1581712
6.6846259
7.1882911
7.008431
6.8214566
7.4287109
6.5398769
6.8570202
6.433461
6.4648915
6.63103
7.0025604
7.5493585
7.0792379
6.3988356
6.7231605
6.6123373
6.7102802
7.2620475
6.9613506
7.1913871
7.0460186
6.5430302
7.2186313
6.3842217
7.2095555
7.1545899
7.3421578
6.4282458
6.8537296
6.9367092
6.9475859
7.2182331
7.13244
7.1142079
6.9068673
7.4477378
6.6782371
6.8178842
6.544004
6.7369551
7.0317637
6.3003079
6.8315117
6.454779
7.0252838
5.9738801
5.9775723
7.2983676
6.6340358
5.9527992
6.0584692
6.6574441
6.7851293
6.7964253
7.0696342
6.8147009
6.6624772
7.0824299
7.4411324
6.6499978
6.4699133
6.8789535
6.2100224
5.7545231
6.2501157
6.3618619
6.4146057
6.0212291
6.4664199
6.6755026
7.6677088
7.6410096
8.3532297
8.7541695
8.6579003
8.1881059
8.8459359
8.7536593
7.7181202
7.5036637
6.9445778
7.3272228
6.5185505
6.4563759
5.9675501
6.0545723
5.8219091
6.6328865
6.6074175
6.1097716
7.5215466
6.8342556
6.6419854
7.227693
5.5902397
6.4958928
6.5507563
6.6348846
6.1911066
6.7782706
5.7495939
6.620232
6.7443904
6.5646462
6.7164494
6.2939625
6.7858203
6.4396821
5.9585738
6.4638061
6.3478048
6.1962467
6.7691436
6.5951589
6.4845926
6.3948494
7.2479563
7.0793399
6.5691884
6.6724252
7.2065186
7.3116568
7.0529787
6.5479562
6.4517108
6.9715016
6.3664945
6.2889112
6.5569486
7.0480179
6.7496578
6.7817412
7.111267
6.7978782
6.3035595
7.0754002
6.9384104
6.7268943
6.6053004
6.5560302
6.7510085
6.4601733
6.5681627
6.2031763
6.5657464
6.500356
6.9763554
7.3049475
7.1478335
7.1520803
7.0332698
6.9847231
7.0809029
6.526644
7.11207
6.3510915
7.0317572
6.4882258
6.4565081
6.6501408
6.3320802
6.8259832
7.2359895
6.7265988
7.0056615
6.88069
7.2738789
6.760704
6.9097302
7.7242649
7.2293137
6.4302357
7.1994101
6.4338375
6.7837106
6.8883803
7.0858534
6.6112084
6.9614508
7.4228423
6.0463142
6.3567117
7.2075566
6.6499037
6.7457008
7.1060531
7.5926317
6.2723843
6.419544
6.7309729
6.7601912
6.8000219
6.6429686
7.21681
6.4193303
6.836398
7.1307029
6.9005283
6.5269871
6.805153
6.6411216
6.5353927
7.2668142
6.685965
6.5435135
6.476857
6.8053942
6.1997433
6.1434429
6.8322484
6.276926
6.6102394
7.0504217
7.1053847
7.3584949
6.4018756
7.1208733
6.9418338
7.289092
6.9024588
7.1253261
7.2467625
6.6657966
6.6673114
6.3722143
6.8572274
7.0231298
6.6116627
6.9169786
6.7565117
6.7283129
7.1818918
7.1957486
7.3200891
6.433636
6.7690164
7.0453599
6.2955434
7.5016467
6.8473628
6.5558658
7.1468326
6.9012538
6.7709208
6.4552403
6.0487849
6.3291026
6.4481829
6.8594911
6.9201559
6.3958712
7.0001875
6.9399763
6.6429945
6.333724
7.0241072
6.6414137
6.3104064
6.7844923
6.8861052
6.092557
7.3190489
5.7550879
5.8775338
6.8584476
6.4317916
6.1093537
6.2443432
6.5839101
6.0548883
6.9276356
7.041175
7.1130893
7.5616168
7.6945013
8.0591616
8.4744104
9.2752205
8.6402145
8.4108479
7.7632224
7.2454754
7.2282852
7.1696143
7.0412436
6.6098112
6.2442518
6.1923165
6.4669454
6.681111
6.724896
5.6063721
6.402597
6.0778991
6.293497
7.1399171
6.1987816
5.8793457
6.5763042
6.4833778
6.3743569
6.8593948
6.7420392
6.670797
6.4562689
6.6911269
6.470893
6.6496942
6.7959612
6.7072162
6.3279974
6.3788653
6.1904163
6.9535257
6.5702417
6.3339256
6.8338448
6.3886707
6.7470479
7.1480447
6.9312299
6.5200122
6.5373627
7.3255368
6.5560285
6.7528005
6.7620967
6.986391
6.7206358
6.7771761
6.7606593
7.6771471
6.9981254
6.3617169
6.2340139
6.0851733
7.379189
6.3832772
7.0815973
6.9099377
6.1581752
7.5176475
6.9668585
7.4417214
6.8883351
6.8272535
6.3782216
6.7740826
6.8113586
6.1903007
6.7529142
6.8211429
6.4898981
6.9137886
6.3058177
6.545108
6.8194739
6.5533656
6.9579802
6.6841125
6.4726064
7.1489219
7.0247415
7.0139991
7.0566031
7.1780713
7.1711236
6.8126185
6.6313546
6.7385545
7.2436312
6.31135
6.5486103
7.1707638
7.0968639
6.5944004
6.6825379
6.7016477
6.6568516
5.8448984
6.5999493
6.8757564
7.67822
6.2121831
6.5219624
6.6156239
6.4070767
6.5076431
6.0392881
6.7178948
6.565796
6.9303739
6.7515017
7.1291942
7.3370354
6.8056394
6.2963006
6.8514355
7.2837077
6.7242411
6.9051813
6.3980738
7.325255
6.9112519
6.60189
6.1330062
6.502453
6.375275
6.5755161
6.8898946
7.0706281
6.8182911
6.7913544
6.9003101
7.753738
6.8846156
6.8127247
7.3709669
6.8135395
6.5279387
7.1290341
6.6459547
6.8756957
7.1281933
7.1226113
6.2394827
5.9553103
6.6071832
7.4887086
6.9780449
6.8331621
6.831613
7.2788372
7.0137804
7.04821
6.0870174
6.7748165
6.8271868
6.4778829
6.7914044
6.5544064
7.1058155
6.5462063
7.2186584
6.7140279
7.0454147
7.5457766
6.7150297
7.2497878
6.2883162
7.3729207
6.2373915
6.665508
6.5675858
6.2395938
6.1800823
6.9120981
6.1496837
6.1678569
7.092811
6.6406353
6.7822079
6.2624127
6.5062921
6.6449628
6.5527197
7.0697122
6.0762544
6.2138332
6.5117002
6.6251008
5.5907506
6.3832246
6.4765426
7.0839995
7.632955
8.0366078
8.7373153
8.7476757
8.9881459
9.1141646
8.8005527
7.7038779
7.8011329
6.6702357
7.2559944
5.8305154
6.1940625
6.3953047
6.295685
7.035237
6.3507724
6.1300718
6.5998629
5.9480358
6.6242497
6.5339842
6.3228992
6.2570186
6.0641154
5.8064337
6.3511907
6.8011104
6.2426041
7.1035155
6.1772893
7.3318325
6.2707496
6.5971911
7.117461
7.0419616
6.2962296
6.8566292
6.1626239
5.9410789
6.8276336
5.9321749
5.7791998
6.5575096
7.0990006
7.0361243
6.0200394
6.5939641
6.9007096
6.9847499
7.2245617
7.2341185
6.9607202
6.10647
6.6548702
6.1231639
7.1318379
7.3224823
5.9403543
7.0029294
6.5615998
6.5109827
6.3369934
7.1632084
6.8535253
6.6854791
6.916277
7.139495
6.4343284
6.4623581
7.0178736
7.3539025
7.2282456
6.7167015
6.2611951
5.8825189
6.4129623
7.1830715
6.5543282
6.8662697
6.859695
5.9549707
7.2685805
7.5583388
6.7854315
7.1740124
6.4963461
7.0032819
7.5752358
7.2912974
6.5378419
6.4381111
6.8398938
6.7312262
6.7965027
7.2960849
6.9028258
7.443248
6.8039097
6.7500976
7.0970873
6.9396573
6.7013828
6.1651663
6.3418676
6.9910387
6.9635507
6.21021
6.8049108
6.9582663
6.3198206
6.3861256
7.20722
6.1031651
6.9272444
7.1263254
6.0890973
6.7112386
6.3198232
6.7936947
6.6018808
6.1416546
6.9914558
6.9832876
6.5283687
6.957712
6.2564952
6.2975274
6.3279873
6.719052
6.5636666
7.4758632
6.7333677
6.9704314
6.9750145
6.8992302
6.8317976
7.2259632
6.3239722
7.3724786
7.0170599
6.329468
7.1758015
7.2029208
7.3994676
6.6025739
7.3740173
6.8586803
6.2118628
6.4892907
7.1281331
7.4715396
6.3768589
6.7783599
6.594013
7.574041
6.5343793
7.368706
6.6560706
7.1608995
6.3740102
7.4019179
6.0149184
6.9407956
6.9776842
6.4926122
6.4380198
7.008227
6.3718944
6.7494238
5.6738764
5.9305577
6.693238
7.1287221
6.0721902
6.94419
6.8751453
6.4495933
6.6310392
7.4607407
6.1154224
6.8198178
6.7477366
6.7906346
6.6877975
6.7953923
6.5958627
6.0357268
6.4212609
6.7078089
6.6969265
6.7560952
7.3218468
5.7804572
6.5648429
6.2908739
6.1657721
5.9803904
6.2622364
6.7648247
6.8896356
6.4886079
7.7794148
7.9834537
9.0194697
8.1833665
8.5995644
8.0737309
8.621353
8.5527242
7.5306054
7.0455743
6.6896373
6.5198672
6.7633506
6.3659533
6.1492242
6.5677128
5.8189594
6.5842107
6.2826576
7.1812844
6.1769914
6.5986535
6.5341456
6.0852021
6.8379223
5.6761621
5.7810979
6.0195006
6.9990118
6.8785388
6.0613022
6.4626745
6.2515624
6.6173591
7.3170437
6.2316509
7.2899049
6.4057356
6.3358291
6.8083328
6.8455973
6.6847956
6.0303748
6.321072
6.2549011
6.3880439
6.2870751
6.7594763
6.9988653
6.5261143
6.8475852
6.9242334
6.6901298
6.537914
6.4667627
6.2343675
6.587556
6.749741
6.6200698
6.7716144
6.7073182
6.9410654
6.4538504
6.6656503
6.8006636
6.5891402
6.8650385
6.0953916
6.9317571
6.9329725
6.7595552
6.6278093
6.5978262
6.121489
7.1703929
6.9981239
6.3528029
6.2067008
6.6157076
7.0150025
7.0718629
6.96023
7.0476581
7.4172807
6.1216619
6.935851
6.7396609
6.4795142
7.0284589
6.7579352
7.2094943
6.3727162
6.4625495
6.9423351
6.4475842
6.8254068
6.6294694
7.2107531
6.9635534
6.6275593
6.5407831
6.6083546
7.6566041
6.7414141
6.6841266
6.686015
7.3279254
6.1112138
7.1766687
6.4905984
6.6576129
7.013717
6.409259
6.9194492
6.7320804
6.2360867
6.8020269
6.9473808
6.9489056
6.4980156
6.6839558
6.9230865
6.9097948
6.5641752
6.2537059
6.8321008
6.8489056
7.2912032
6.178035
6.6273026
6.9226369
6.7219921
7.5198606
6.6224634
5.844665
7.0033632
6.2060067
7.2224816
6.9112499
6.631095
6.3929239
7.4556555
6.8759354
6.5768101
6.4997364
6.6924352
7.230532
7.4756554
6.7901849
6.9399783
6.901114
6.1623908
6.8525626
6.6334616
6.6797807
6.7834911
5.7872677
6.5948825
7.173235
6.9152421
6.6767712
6.7123339
6.4354966
6.558798
6.6016427
6.7302881
7.0202165
6.7721191
6.730126
6.4470639
7.1265352
6.8181966
6.9420091
6.7921336
7.0125224
7.2565061
6.5083348
6.8432122
6.8944269
6.6367164
7.336104
6.2534664
6.4379238
6.6291761
6.5898134
6.4965579
6.4003297
6.8888433
6.5573764
6.2778324
7.2015312
6.8516424
7.0276351
6.3699817
7.0275583
6.5844585
5.5027895
5.746088
6.4885947
6.4264826
6.6161361
7.4225473
8.0175428
7.9665344
8.3176911
9.4030702
8.8360007
8.59125
8.4171284
7.9444602
7.8105983
6.9875722
6.1439456
6.1187548
6.5433764
6.7387322
6.7604261
7.1762666
5.9240033
6.8710766
6.3905927
6.2047955
6.2603025
6.7732026
6.7133592
5.7935087
6.8737927
6.7990849
6.4214834
6.1424739
6.2217562
6.047019
6.4911924
6.3644287
6.3931632
6.5929106
6.398639
5.8743278
6.2857577
6.3139842
5.8873485
6.8617243
5.7484984
6.7181046
6.4495814
6.4435723
6.8225749
6.4663142
6.4950395
6.2535556
7.0016452
6.9514038
6.8371002
6.7789775
6.8720818
6.8800278
6.7676076
6.8765703
6.3744104
6.6509916
6.8461398
6.3682756
6.6402863
6.599769
7.1549666
6.8669671
7.1199268
6.9232166
7.0680013
6.6746067
6.7531297
6.4947283
6.9051625
7.911447
6.7965503
6.7429229
7.0814536
6.1743577
7.1825699
6.4425481
6.9725558
6.8635974
6.7348962
6.4913485
6.9163011
7.1811959
7.0156792
7.2828962
6.2399138
6.7672146
6.2542347
6.8029359
6.9628643
6.4724762
7.240473
6.5821459
6.9935017
6.6297724
6.4759751
6.4839001
6.2165249
7.3295875
5.8434047
6.2768223
6.016692
6.2570088
5.7143367
6.9855446
6.7751475
6.3738771
6.2427289
6.2363603
6.6257065
5.9726395
6.8823378
6.6963563
6.581808
6.9542865
6.8194963
6.5609004
6.7015307
6.6400555
6.4555222
7.1062818
7.1402628
6.7171101
6.305439
6.2506723
6.7840118
6.6108876
6.4054252
6.7794459
6.2862971
6.8575021
6.1336927
5.8109604
6.6520499
6.3622252
7.3334698
7.2741237
6.5307356
6.3979155
6.6789506
6.6416136
7.2788608
6.6295485
7.2115156
7.2234007
7.7237445
6.6378797
6.6019916
7.407631
6.5034491
6.1200163
6.8524835
7.0273679
6.7340481
6.7086508
6.3295318
7.4852639
6.9154225
6.6348678
7.020496
7.1825167
6.4473679
6.9043707
6.5993319
7.3782637
6.8195245
6.3387571
6.718402
6.8981888
7.5167585
6.7248197
6.9240784
7.1397234
6.8605569
6.3142369
6.5796744
6.3936164
6.8847089
7.1969148
6.6117819
6.9950535
6.3390343
6.6396652
6.5139044
7.190602
6.6901021
6.8675415
6.452211
6.3227636
6.6778332
6.1834597
5.9099738
6.2168441
6.8389594
6.0330589
6.2127097
5.9576257
5.4720399
6.47016
7.3443483
6.9658284
7.0392215
7.5589508
8.5164047
8.4825679
9.2784085
8.6767141
7.8588819
8.0153992
7.9966462
7.6244593
7.2412631
6.9048127
6.7120311
6.9993964
6.8647107
6.3757654
6.1816735
6.2752222
6.6431652
6.8525133
6.3072784
6.98656
6.1684762
6.2957135
6.3250703
6.2420712
6.8358153
6.4399283
7.2034801
6.5077046
7.209002
5.5998726
6.6455159
6.6161767
7.2348112
6.6080269
7.1763723
7.2189107
6.2776651
6.064048
6.8314305
6.2247187
6.4711394
6.3460503
6.6177579
6.8033867
6.8467508
6.6308035
6.2253421
6.2627893
6.6894799
5.7618856
6.1601201
6.0135525
6.4971699
6.7817362
7.4857004
6.5984543
6.2201237
6.4501265
6.8116235
7.0227255
6.4980568
6.6682734
7.1341561
6.7738
6.7201103
6.566001
6.5459403
7.0862677
6.4908707
6.6922952
6.3227903
6.9361285
6.8233271
6.8953771
6.749915
6.4820524
6.7280459
6.2790461
6.6331814
7.6241415
7.386353
7.0850192
6.9240739
7.0695804
6.9058847
7.1089804
7.21161
6.3774952
6.6884663
6.7498308
6.5520842
6.3876356
7.2364636
7.0101247
6.4188753
6.3657269
6.9200045
6.5020005
6.3111856
6.6673164
6.443611
7.0782181
7.6239105
6.1229203
7.0736807
6.9182191
6.4444268
7.1201821
6.4272656
6.0550168
6.3092706
6.946547
6.8636788
7.0855373
6.8938155
7.1820568
5.9791115
6.6159498
6.5939647
6.7083198
7.1297059
6.4766501
6.8245547
6.0143732
6.4171596
7.1121246
6.106998
7.2899204
6.5786829
6.9576715
6.3194334
7.0427082
6.7594717
7.2296997
6.5552208
6.484578
6.4768164
7.4996126
6.6365089
6.1573557
7.1152791
6.7693458
6.6267106
6.9735703
7.1123991
6.5613493
6.8615359
6.7036464
6.6034768
6.9981044
7.0901829
6.3268249
7.2857904
6.9257469
6.8015945
6.2950457
6.7936631
6.8439469
6.9088772
6.6765116
7.1868623
7.4072939
7.2657926
6.6936494
6.905698
6.9123346
6.5271096
6.7256975
6.5091251
6.7357519
7.3130279
6.6199476
6.4162985
7.2059098
7.0170015
6.4732146
6.3639627
7.1684408
6.6517496
6.7093858
6.7708211
6.4043908
7.0478334
7.5013506
5.6882031
6.6941466
6.9740783
6.3019252
6.6136102
6.5738945
6.2153677
6.64464
6.7650134
6.3536076
6.3584544
6.0653119
6.7289224
6.4961898
6.9250449
7.5999986
7.4186708
7.9072699
8.4739175
8.5863588
8.4347318
8.9106811
8.0400838
7.9759693
7.0724971
7.6174482
6.7219824
6.6693885
6.2115563
6.9043397
6.1586914
6.7913621
6.8318948
6.2031421
6.5808133
6.4874172
7.2321544
6.0976222
5.8765186
6.6064269
6.1468401
6.2893384
6.634136
6.0238234
6.9113985
6.6678348
7.0427531
6.3931984
6.8519684
6.0909201
6.6002028
6.9307699
6.2672174
6.5427242
7.1222574
6.2161687
6.1141116
6.8796775
6.551203
6.1477486
6.2252672
6.6896925
6.6517195
6.4283188
6.6457928
6.7914041
6.306221
6.4602362
6.3082104
7.0818459
6.1010746
7.2045499
6.3865972
6.6192391
6.9986394
6.916331
6.5121332
6.9728103
6.2281429
7.1874215
7.124636
6.6969338
6.861275
7.0968674
6.6372488
6.9642784
7.0173854
6.8993116
6.2279498
6.6342785
6.0198123
6.6165458
6.4641644
6.7240288
6.901355
7.070876
6.706378
6.7750354
7.139518
7.2456747
6.8414975
7.0825775
6.4866208
7.3538833
6.5117633
6.4725254
6.9615506
6.7355302
6.1657911
7.1635579
7.0203842
7.3771063
6.8704303
7.0240463
6.3287325
7.4564493
7.6482129
6.6171793
6.4997747
7.1345842
6.3347893
6.8175333
6.7095047
7.0696084
6.0225829
6.8062328
6.858099
6.0966489
6.7005075
6.9956533
6.2821693
6.6476222
6.8337285
6.5642699
7.3492235
7.0481865
6.5132301
6.854207
7.1527902
6.8229687
6.9685913
7.0008838
7.0368416
6.2645754
6.5065118
6.6278284
6.1616945
6.234934
6.8939536
6.894427
7.1063019
6.896932
6.4728072
6.7541108
6.4916356
7.0847878
6.1940843
7.0818997
6.9465587
7.0495567
6.5632827
6.8538342
6.7646309
6.2141222
6.9615724
6.9657708
6.5216753
7.2844441
6.1788859
6.6860651
6.7236174
6.6026825
6.6413242
7.0709218
6.5627261
6.9157987
6.7307735
6.8219228
7.5937475
6.6370511
7.1516657
6.8341834
6.8117905
6.0873909
7.1823234
6.8378757
6.6174423
6.7740182
6.719172
7.4461712
6.3454387
6.5196818
6.8284321
7.3844638
6.7663834
7.0561684
6.9218882
6.909276
7.1222386
7.4981637
6.6952769
6.531375
6.7101198
6.5264455
5.7743024
6.5765714
6.662863
6.4228054
6.4287715
6.8830239
6.3909073
6.278802
5.9922976
6.0612883
6.2722074
6.5179141
6.7855508
7.5724684
7.7780917
7.2415985
8.7679178
8.1008885
9.7630289
8.8746415
8.6156776
7.6229352
7.8309391
8.0475991
6.775441
6.5011484
5.9082215
5.9203162
6.0932572
6.4648468
5.557586
6.5799529
6.1798024
6.6812554
6.3983723
6.2541923
6.6583066
6.6592017
7.2484947
6.0026438
6.2470594
6.0517668
6.316464
6.3407083
6.3646663
6.3543669
6.3688381
6.441184
6.6903925
6.9471324
6.3933074
7.2144505
6.8568851
7.0168183
6.1928729
5.8752654
6.6824547
6.6889658
5.9231789
6.0234766
6.7118624
6.9681951
7.0880099
6.2360712
6.8064569
6.8100609
6.5679865
6.2060293
6.226326
6.9473559
6.0599937
6.579536
6.762614
7.0993637
6.5554828
6.188454
6.8403561
6.4604562
7.4257426
6.4349185
6.8240487
7.5249721
7.1548093
6.7536643
6.939468
7.6599311
7.2846013
6.2624572
6.8291834
7.1588338
6.185133
6.8681197
6.7344698
6.8680081
6.4584645
6.0757157
6.358328
7.4622275
6.7114089
6.4036109
7.3097764
7.1241994
6.4569214
7.2026154
7.215891
6.510194
6.9822102
6.6411419
7.2484786
6.3273022
6.6469865
7.107421
6.7702112
7.0158839
7.4307852
6.6003103
6.3495667
7.3451428
6.596175
6.879211
6.54203
6.1724188
6.4051823
7.2514893
6.6045114
6.7037501
6.872377
7.2007689
6.8170793
6.6631847
6.440713
6.9782892
5.9778396
6.3199189
7.0357852
6.9273718
6.2817687
6.9611358
6.9358364
6.3164283
6.7331164
7.360051
6.5751553
6.2552863
6.8194606
6.550198
6.6256494
6.9136239
6.7394626
6.6171338
6.373574
6.4527807
6.3766513
6.5333399
7.4193912
6.8153029
6.5542432
6.7121093
6.8518859
6.8634017
6.8793735
7.168454
6.6512014
6.9130063
6.568302
6.1037435
6.5857853
7.3310933
6.687189
7.2227379
7.0954073
6.646304
7.6066337
7.2171377
7.2280539
6.5493032
6.6476427
7.1121206
7.3193589
6.8301195
7.4611931
6.7721338
7.0689422
6.781261
7.1897315
6.6374947
6.7482449
6.1650713
6.8432072
6.7436099
6.9077943
6.8166702
6.4393053
6.9387107
7.6676159
6.4497442
7.0391808
6.4536017
6.3297555
6.2494588
6.8854999
6.6824513
7.0172377
6.6188318
6.2497764
6.56571
6.5923709
6.7893701
6.0366409
5.7096697
6.5018559
5.9991502
6.0561843
6.5161419
6.3868663
6.6417713
7.2235725
7.5292275
7.4913456
7.7308661
7.9328751
8.7582674
9.7963466
9.1921758
8.7542562
7.7687931
7.2508623
7.0714831
5.3983924
6.7563299
6.865742
6.4014184
6.1874931
6.8167176
6.169792
6.1129999
6.7068149
6.4020639
6.182356
6.7614801
6.3099286
7.0479592
6.274266
6.28754
6.2745271
6.6434315
7.0188106
6.6669608
6.8191763
7.0001734
6.4819331
6.9153001
6.5133696
7.3665178
6.6774867
6.3756946
6.6176159
6.305496
6.0091374
6.7110077
6.6672157
6.8249515
6.2835283
6.2984499
6.4361928
6.2433186
7.6280276
6.7791552
6.3953762
6.8289271
7.1505111
6.9437891
7.0333246
6.8500598
6.1055096
6.3853874
7.0669566
6.5958087
6.7870821
6.897843
6.3074338
6.7612054
6.5271531
6.1578614
6.8572826
6.4138554
6.5716669
6.2584047
6.5341642
6.9246237
7.3485965
6.3361865
6.8893366
6.9560311
7.1510093
7.231875
6.3458007
6.7829869
7.2209476
6.9641655
7.284351
7.235627
7.6578534
5.8186889
6.6957077
6.6931672
6.2867922
6.6247745
7.3526873
6.8422079
7.1797804
7.4323429
6.7112818
6.6665807
6.3266822
6.6961405
6.5323169
6.7178682
6.6955095
6.5071965
6.3512672
6.6385399
6.785478
6.4245327
6.8919287
6.7060179
6.662373
7.1014832
7.6237642
7.0774788
7.0007153
6.7617679
6.8086106
6.9777702
6.5528852
6.2009727
6.9207208
6.497121
6.9074639
6.4489263
6.2905415
6.2343552
6.8652846
7.4920587
6.8350726
6.9437146
6.8138626
6.8461808
7.6459718
6.4673816
6.7004892
6.507667
7.0274417
6.8555793
6.6374262
7.0379509
6.3833208
6.8047282
6.835074
7.3494748
6.9617391
6.7923827
6.2774586
6.2490817
7.0412166
6.5577512
6.7296637
6.4943661
6.8880182
6.9053508
7.4734724
7.5208718
7.267627
7.275999
6.4519077
7.3678319
6.5373408
6.3109372
8.0958976
7.0293546
6.6617018
6.8929686
6.895847
6.0646857
6.5519958
7.0182528
6.8133114
6.1771746
6.595915
6.7037935
6.7904625
6.131226
6.8556343
7.3326953
6.1334556
6.8943458
7.2132551
6.8524565
6.9106298
6.5120778
6.6206388
6.261255
6.6444908
6.4830209
6.4435385
7.2320576
6.646157
6.9059376
6.7805686
6.2398812
5.8921671
5.9929967
6.5733517
6.2671847
6.5744664
6.1276934
5.7447409
6.3960803
6.8823897
6.8294107
6.9103517
7.2223425
8.2549661
8.5424472
8.4790771
8.2957178
8.6378362
8.8348451
8.0307787
7.7850702
7.3741428
6.772885
6.3661064
6.3852363
6.1236864
5.8072642
6.5858843
5.9855895
6.7476666
6.2513792
6.2846847
6.9052468
6.5377889
6.3193317
6.1802697
6.29628
6.6597832
6.8272881
6.5279822
6.3253792
6.6556356
6.7813986
6.4020694
7.1205128
6.4435611
6.9164474
6.9426863
6.6012094
6.5482888
6.9066053
5.9044537
6.5926371
6.6058954
6.7169279
6.2485821
6.0518289
5.5918137
6.784164
6.9837596
6.4335792
7.51116
6.3799272
6.1488688
6.5854336
6.679621
6.8955702
6.6853346
6.3839911
6.1195626
6.4702583
6.1992194
6.9810173
6.671187
6.0159699
6.8469309
6.3845186
7.2657743
6.7795503
6.8458577
6.4350927
6.9258921
6.754309
6.8109639
6.6400439
7.0009734
5.8464127
6.8220544
7.1525983
6.6885872
6.9765358
6.5569615
6.8447016
6.5812756
7.2288613
6.9760137
7.3153436
6.7843591
6.7777861
6.9173458
7.3624844
5.9247871
6.1920587
7.2944534
7.5092099
6.7233034
7.3070612
7.6128304
6.8710493
6.6293856
6.6412704
6.7240685
7.1191376
6.7560853
7.5630596
6.6727748
6.5118812
6.983946
6.848134
6.9332359
5.9757535
6.7038176
6.0732661
6.8294173
7.0465212
7.2018029
7.0420187
6.9413078
7.0504346
6.7387779
6.7455796
7.1422013
7.1672344
6.5836539
6.0868417
5.9003032
6.1522748
6.3854302
6.9274647
6.4694143
6.7280386
6.8983528
6.2408046
6.441545
6.4793244
6.4596955
6.5954823
7.0548325
6.5699303
7.0200491
6.8874671
6.8318582
7.1251914
7.561582
7.3095791
6.1667114
6.9584747
6.3130033
6.0468706
6.3665376
6.0027803
6.396289
7.3272423
6.6415352
7.8240453
6.9663778
7.19604
6.785319
6.7652859
6.5765951
6.9502327
6.3345771
6.5716137
6.4895295
6.9530499
7.4577702
7.6780871
6.2124143
6.9698717
6.5750109
6.3949401
6.8387203
6.6032666
6.7991462
7.0478384
6.4096224
6.7028033
6.0931433
6.5864555
7.0803674
6.0561611
6.8363905
6.183618
6.7720227
6.5213465
6.5856791
6.0692749
6.3287658
6.5977052
6.6968468
6.5983449
6.449832
7.1676007
6.5971651
6.3293934
6.2958541
6.4616851
6.7679519
6.1709813
6.5964387
6.3048431
5.9890103
6.0039152
6.4864229
6.6312996
6.5910422
7.0324846
7.9319266
8.3553855
8.4633672
9.0694202
8.7789322
8.6467393
8.9024937
7.7577764
6.7048256
6.5872591
6.7989353
6.4491766
7.4104949
5.8299931
6.2386606
6.3450756
5.845442
6.7842019
6.6786341
7.0178675
6.7275065
5.1603097
6.1477971
6.6267789
6.2047217
6.6161344
6.5051911
6.324939
6.58549
6.7721307
7.0081385
6.2451792
6.3658467
6.3100883
6.8975734
7.1690162
6.9754128
7.0822672
6.6733643
6.2797268
6.8345947
7.2266033
6.769541
6.9480295
6.0418939
6.8338849
6.5823496
6.8472453
7.1182105
6.4005126
7.2340372
6.3166587
6.7052932
6.804968
7.089571
6.5689678
6.339475
7.2205827
6.8258253
5.9932456
6.8298247
6.0730573
7.026232
7.2495534
6.6915418
6.4197677
7.2195378
6.5687197
6.4534472
6.2874128
6.2103029
6.8632911
6.6357468
7.0553212
6.7387657
6.6814634
6.1152374
6.4695555
6.7991134
6.5996413
7.2575597
6.0940507
6.7321336
6.8429135
6.5294461
6.8619499
7.4422159
6.4265844
6.6885798
6.2884935
7.0926438
6.3682808
6.4985695
7.352957
7.1284062
6.5168568
7.180739
6.5531403
6.8397118
7.487049
7.6454044
6.6140206
6.7687596
7.149184
6.9875392
6.6727234
6.6815446
6.4663477
5.9090459
6.7013272
6.3113468
6.6746265
7.684484
6.7726918
7.3253828
6.3439898
7.2377567
6.1331597
6.6551556
6.8688996
6.9922551
6.7134584
6.3546608
6.303928
6.4895211
6.3782786
6.5431074
6.4039881
7.2252038
6.861095
6.8661706
6.4457645
6.8636778
6.8809819
6.4094095
6.3146034
6.0352837
7.0868985
6.3809071
6.7775053
6.7911286
6.7941644
6.520965
6.6752217
6.6450473
7.2654722
6.3269597
6.6828771
7.1594134
6.917708
6.3724189
7.0770692
5.7880466
6.635504
7.4071885
7.0066949
7.1164913
6.7851851
6.6975927
7.1006505
7.7378382
6.769473
7.4082259
6.6380081
6.6589197
7.0437283
6.4421426
7.1329226
6.1295445
5.8533259
6.7004772
6.8831804
7.2076933
6.7548209
7.0674746
6.7801001
6.9445006
6.327154
6.6813823
6.4661021
6.6012373
7.530194
6.1440833
6.6528008
6.5198089
6.7820951
7.3114351
6.981701
6.3939576
6.082993
6.9376098
6.2284093
6.2921033
6.6642935
5.8497778
6.9128814
6.308511
6.1323235
6.502565
6.5719614
6.2666748
7.012871
6.9575738
7.6319982
7.6986826
7.9684276
9.1449803
8.3966558
9.1471173
9.4874716
8.3751834
8.3076984
7.6996863
7.0295671
6.7086688
6.7913869
7.2521154
6.6920053
6.2385795
5.6209812
6.4532837
6.4777473
6.1035565
6.7980386
6.5863986
6.6898193
6.3079022
6.2338672
6.3349294
6.09404
6.314286
6.8022336
5.6852759
5.8963204
6.5899591
6.7030347
6.2246225
6.7809206
7.0515577
6.836091
5.9944417
6.3063726
6.2602113
6.4531226
6.3485751
6.2847792
7.3353445
6.4752888
6.5429097
6.7072549
5.9512086
6.1724095
6.7959845
6.7516105
6.2051488
7.0616072
6.6150034
6.7230692
6.7309314
6.4840117
6.0241067
6.640981
6.1038512
6.6283253
6.7676601
6.7641453
6.1707817
6.8473074
6.2566285
6.8242621
6.9859248
7.3586715
5.9918859
7.0705942
6.699266
6.7317931
6.5493555
6.847701
6.6631363
6.5282466
6.5582691
6.990824
6.9441354
7.1722293
6.8959383
6.7253564
6.353631
6.8979001
6.6851707
6.882967
7.1075676
6.6154075
6.6193728
6.7029209
6.8996264
7.5829203
6.4730635
7.3018601
6.6993113
7.1163006
6.8023627
6.5799148
6.7029186
7.1391394
7.2544655
7.1199438
6.5488472
6.2772802
6.9101421
6.9577512
5.818942
6.7690755
7.5448771
6.6894224
6.5187224
6.3825482
6.0817179
6.5766837
6.872898
6.3914846
6.8249339
7.025128
6.5077852
6.9143514
6.9717983
6.7439675
7.4927739
6.2835057
6.863024
6.4128946
6.4896693
6.9251636
7.1693359
6.8237109
7.2487222
6.4116259
6.8866547
6.5611575
6.4763374
5.7743679
7.0447208
7.4622118
6.9471368
7.275492
6.7820907
6.2991551
6.4332219
6.4593672
7.1728871
6.580084
6.8142491
6.2806787
6.7314343
6.1910432
6.5369123
7.0844624
7.4403385
6.9818185
6.8564199
7.2419823
7.1426745
5.9527929
6.2189815
6.5778726
6.5627962
6.270645
6.6159649
6.5212345
7.2820801
6.6115381
6.3420772
6.6440905
6.5434503
6.8781904
6.6933736
6.2036102
6.9773559
6.5936846
6.505263
6.3909658
7.0073451
6.6492011
6.1084049
7.5030556
6.5620201
6.7715228
6.802898
6.1806501
7.1273702
6.7640542
6.6938044
7.1458726
6.729588
6.0249305
6.6639849
7.0770891
7.074183
6.6591325
5.8557216
6.8106646
6.2885071
6.3418721
6.6998914
6.4208497
4.9158723
5.8668594
6.3798753
6.5563554
7.4574789
7.8969154
8.0303994
9.018012
8.5948293
8.6705606
8.4600383
7.9342361
7.8404564
6.8378288
6.7530708
6.9509921
6.7247956
5.6511108
6.4823338
6.1584654
6.4987451
6.4244658
6.2616144
6.3950125
6.6676855
6.7119274
6.1892092
5.9728493
6.3330469
6.8920327
6.638398
6.6775696
6.3642524
6.2432276
7.3079377
6.4906112
6.4975474
6.4274888
6.5561112
6.4403299
6.188896
6.7646282
7.1192626
6.6492413
6.3012843
6.6011348
6.9621474
7.2478636
6.053676
6.6227016
6.4177166
6.7839766
6.6432665
6.3595335
5.9231305
6.1652393
6.392877
6.5174868
7.0803662
6.4173073
6.7793427
7.0092698
6.7767677
6.7217605
6.4813238
7.0051103
7.299987
6.8681094
6.8051023
6.7781561
7.0772918
6.5860647
6.5181618
6.9292058
6.6452096
7.0940262
6.2117184
7.256781
6.4863518
6.849347
6.5847591
7.0272628
6.2290869
6.3602527
7.3713962
6.394675
6.4984336
6.7833404
6.4608507
6.8149479
7.2004347
6.7857251
7.4065308
6.2170101
6.653389
6.432634
6.8980191
6.2874511
6.1009564
6.612605
6.0801906
6.4236211
6.5550119
6.1343665
6.971212
6.8744649
6.5251059
6.2385093
6.65689
6.6971329
5.9461381
7.2496839
6.9231245
6.1032219
7.5008756
6.7024902
6.208152
6.4131566
6.8283951
6.1907352
6.5326373
6.6719817
6.5508308
6.786282
6.4433204
6.6161709
6.7814356
5.8784822
5.9915492
6.3303334
6.7899087
6.8359553
6.4861636
7.2515626
7.1543587
6.663666
7.9755558
6.5931757
7.1283227
6.7363957
6.113969
7.4640786
6.3616543
6.7876155
7.4794275
7.0007304
6.8989542
6.705534
6.8518386
7.467949
6.5873507
6.6770241
6.5893664
6.6256698
6.7153982
7.0317949
6.8530382
6.5350777
7.4387304
6.4943089
6.6962373
6.8699999
6.239942
6.4920556
6.3854682
5.8721065
7.6389
6.5464513
7.1346383
6.8064399
6.4076526
6.7648723
6.9115942
6.3319673
7.2087415
7.1782674
6.6735283
6.9400994
6.2335817
6.9041913
6.6419424
7.2924589
6.3115351
7.3933964
6.6275226
6.7668618
7.1229109
6.9931022
6.2519515
6.2572036
6.2573599
7.0025401
6.5491752
6.4134367
6.6109062
6.9479396
6.500489
6.6258394
5.6227816
6.1499612
5.9105181
6.0006087
5.8746104
6.0219033
6.0159766
6.6263538
7.0978747
6.2950643
7.8565154
8.1205576
8.1250731
9.0618148
8.911682
8.457871
9.2924247
9.3061553
7.8000113
7.1849113
7.446352
6.7010291
5.8891863
6.7930534
6.2322922
6.012161
6.0921761
6.1436035
6.681107
5.9271305
6.5557445
6.7961951
6.1179521
6.6152421
5.8907049
6.7710109
6.0896845
6.8120176
6.6723887
6.3559131
5.9557259
7.0087364
6.5671938
7.1382205
6.513208
5.8439185
7.1430024
6.4008624
6.8762275
6.25949
6.7891583
6.872739
6.9394442
6.7469152
6.5147146
6.5841131
6.6432412
6.2534144
6.7661571
6.1613087
5.8663543
6.642386
6.6540591
6.6626752
7.244006
7.0417673
7.2980704
6.7025308
6.9603229
6.4185814
6.5534881
5.9853854
6.6961552
7.0171941
6.2936677
6.60667
6.4188005
6.3872164
7.0279851
6.7151944
6.9870094
6.8786094
7.110494
5.9145803
6.3771712
6.6956218
6.890308
7.1901372
6.5204335
6.5334213
6.6531972
7.0203899
6.7998644
7.1816235
6.4708784
6.9139872
6.9050187
6.1442486
6.8710103
7.4115899
6.3113781
6.5213858
6.3791806
7.1828844
6.5515616
7.0414158
6.1439669
6.077376
7.1335525
6.9822186
6.8648998
7.1222083
6.7853157
6.8124005
6.4323153
6.7635602
6.347884
6.4263947
6.5812562
6.8119624
7.3603304
6.9014012
6.9121187
6.9634814
7.1808252
6.9473918
6.7338481
6.5478069
6.9336845
6.0794506
6.7256308
7.0632855
6.6246223
6.9260435
6.7945825
6.9491182
6.5451753
7.3559593
6.8785478
6.7828142
6.3140698
6.6876575
6.2185586
6.6519116
6.2996342
6.7360421
6.817008
6.5785167
7.3715903
7.2727101
7.2895665
6.9812532
7.0521442
6.5138339
6.8093701
6.3396066
6.8498328
7.2077864
6.3676783
6.7217646
6.2508897
7.0270782
7.2609984
7.2282717
6.4358442
6.5744361
6.8317373
6.7220093
6.6924083
5.9444534
7.1284627
6.7821988
7.1296936
6.9690773
5.7544076
6.7271453
7.1144225
7.1914593
6.6811878
6.9749554
6.8491341
7.1052815
7.4954539
6.3886284
7.5165163
6.810326
6.4107273
6.3864931
6.7341093
6.7216955
6.8239039
6.9797495
6.8054321
6.2562771
6.3815058
6.3557637
6.3988501
6.75302
6.7476127
6.5347772
6.2658931
6.4979554
6.8236199
6.511457
7.049469
6.1134766
6.4701827
6.7212382
5.8777938
6.19899
5.7650251
6.0312618
6.0179292
6.5398964
7.3776937
7.6200531
8.3983733
8.9149327
9.0257931
9.1804509
9.152773
9.3529168
8.3536055
7.0011825
7.130778
6.9599737
6.7730651
6.6660534
6.1257601
6.3203716
6.4592905
6.4408028
7.1399458
5.7990395
6.7604884
6.9143665
6.2687953
6.6756444
6.4766651
6.1229371
6.5477061
7.1347874
6.3605023
6.7450331
6.0900103
6.1647991
6.0459243
5.9726492
6.1569841
6.1930451
6.3644283
5.9144245
6.3701617
6.2697597
6.2327133
6.4413313
6.9988772
6.558203
6.737693
7.1738367
6.8364129
6.6284609
6.98676
7.4151829
6.3863745
6.897752
6.2951243
6.1523962
6.3662813
6.5923842
5.8852475
6.0212577
6.5986263
6.8649368
6.9341857
6.8338027
6.6226554
6.8885137
7.6436793
7.4304019
6.6677591
7.2197655
6.4575647
6.8213903
6.7640925
6.9958875
6.2749535
6.963811
6.7931578
6.8531342
6.3747409
6.6125888
6.1816532
6.485137
6.3967309
6.6290497
6.8233881
7.0775969
6.3595901
6.8699741
7.1669354
7.1200538
6.1628115
7.0341721
6.6967895
7.2773964
7.1080635
6.6293423
6.8609103
6.9513358
5.8381831
6.5300351
6.6118882
6.3312407
5.9238823
7.0746301
6.5301108
7.1990239
6.4010979
7.1169865
7.0234709
6.9697047
6.3712253
6.6932131
6.5839879
6.4004813
6.5933189
6.1528009
6.6710491
6.6560434
6.4186172
6.9687089
6.3672548
6.6670448
6.9566025
6.8098615
5.8320795
6.440696
6.5778969
6.552758
6.2532562
6.7438511
6.6972151
7.2392625
6.8020309
7.024233
6.7111607
6.0762853
6.2081937
6.478567
6.5975495
6.9758682
6.4474604
6.5244892
6.8558275
6.5494883
6.2999041
6.5524879
6.5252076
7.0388708
6.8831253
7.0044746
6.627805
7.5927997
6.8408632
6.4754857
6.3242528
6.8569487
6.6876959
6.3336585
6.6940341
6.2602402
7.1455945
7.6180021
7.1672509
6.7689563
7.3992457
6.9790033
6.0388913
6.7858309
6.8494765
7.0305748
6.7384717
7.2396022
6.3024591
7.7010809
7.2864587
6.6675728
6.8678746
6.4331461
6.4113921
6.7585235
7.0991736
7.0567674
7.488338
6.5479616
6.5564719
5.6158869
6.5244354
6.6947238
6.6541325
6.3974286
6.1578109
6.466057
7.4441986
6.272032
6.6209979
6.146421
6.9961669
6.784554
6.4800548
6.3121948
6.823902
6.4863999
6.2686772
6.4511869
7.1064154
6.9853382
7.1706994
7.6829549
7.8530735
7.9002427
8.8076849
8.1723792
8.6100119
8.9262448
7.9598507
7.7711688
7.0493724
6.8839195
6.5786563
6.1723827
5.4742583
6.6724655
6.101035
6.4366711
6.7231437
5.9745943
6.8704887
6.6975983
6.4858366
6.3356178
6.9213972
6.636965
6.6693823
7.4786006
6.6977355
6.9306566
6.4910166
7.1850257
6.4743819
6.1373321
6.5037665
5.8672668
6.9810235
6.0864829
6.6354881
6.9024631
6.7408097
6.6999107
6.2062165
6.5093812
6.8784751
6.2440063
6.0971782
6.2983193
6.9000248
6.4771634
6.6634748
5.9264847
6.2906165
6.3180146
6.1058548
7.0197015
6.969485
5.9930102
6.6735865
6.2183591
6.5179211
6.5971087
7.2203017
6.7187443
6.3541302
6.9313886
6.9480999
6.6718023
7.4798118
6.5775387
6.4680674
6.8445729
6.1822318
6.5158666
6.4877178
7.2018016
6.9547453
6.8975611
7.0145103
7.0068613
6.7022541
6.1597009
6.0604458
6.7041507
7.313038
7.001245
7.0823916
7.3618616
6.5283011
6.4926787
7.1727089
6.4914448
7.5840024
7.0935742
6.5220036
6.6201072
6.9554651
7.0270114
7.1976182
6.8873327
6.3799402
6.794887
6.1846252
6.9758182
6.9742618
6.814938
6.4332769
7.2568457
7.1700187
6.5333772
6.3002463
7.1961297
7.0479133
6.8334552
6.9156395
7.0611171
6.6385048
7.3820071
6.9298356
6.5129185
6.615181
7.3835135
6.5766008
6.4228022
7.2524947
6.9395754
7.6453159
6.7196574
7.0589789
6.8127454
7.0018981
6.2445738
6.9635048
7.1558171
6.887853
6.7552807
6.8997023
6.0874837
7.3351329
7.0181471
7.0962206
7.1552135
7.0374231
7.4612357
6.5409121
6.9020263
7.3360492
6.9245506
7.1708032
6.3532895
7.0906209
7.3857848
6.1409791
6.8917411
6.5106336
6.6141474
7.2420424
7.4483463
6.9915477
6.8755294
7.7450184
7.0377424
7.2125549
6.909687
7.2300167
6.5622459
7.0080768
6.6482643
6.888229
7.2182528
7.6938538
6.7606911
7.1097267
6.6988131
6.8535014
7.8421978
6.8479155
6.5564184
7.135376
7.1063818
6.1900658
6.5202606
6.5921991
6.664991
6.799293
6.5501205
6.9223425
6.9363184
6.4444212
6.9007978
6.3398166
7.0689565
6.6799052
6.9996803
6.3379035
6.9628419
6.4965261
6.4827927
6.3382278
6.6514085
7.0351958
6.7756273
6.5210303
6.4800007
7.0114793
7.0063487
7.727281
8.5528467
8.5872281
9.2667458
8.8134146
8.9638798
8.7036157
7.5655868
7.4045332
7.556385
6.3338491
6.5226021
6.0351018
6.0131348
6.0148767
6.6883006
6.4024589
6.5801288
6.2620556
6.4433176
6.8234827
6.047785
6.2759045
6.9422499
7.2146357
6.256699
6.7645294
6.1329907
6.8463375
6.6498621
6.2202922
6.8106298
7.0936099
6.5609702
6.3034241
6.2212737
6.1748614
6.7892386
6.7671173
6.3765168
6.972416
6.2908932
7.2670812
5.893073
6.5874597
6.9721468
6.6945975
6.7083789
6.4995374
7.4260732
6.5175848
6.9514302
7.1436675
6.5627456
7.2325799
6.8562635
6.1327542
6.533487
6.6556107
6.9689296
7.0269394
7.0210804
6.2180369
6.1885404
7.2639518
7.0684161
6.9143808
7.3391144
7.4517615
6.470742
6.7756944
6.9214532
6.805082
6.8359593
6.8327193
7.1669676
5.7304851
6.7577933
6.6662021
6.5844502
6.8139377
6.9800849
6.6732776
6.8067918
6.202035
6.3826503
6.6601791
6.736185
6.4003713
6.3577981
7.0295636
6.8704991
7.3357093
7.0244026
6.3834194
5.9890492
6.8721501
6.7349257
7.0277063
7.1623218
6.7450227
6.8557271
6.5298207
7.2299358
6.7794332
6.5605225
6.5886641
7.4410211
6.9502523
6.9174729
6.8861941
6.9301661
6.9368795
6.7623882
7.4010641
6.6703236
6.4440963
6.6054069
7.2030715
7.052713
7.19895
6.6797905
6.8165322
6.0804632
7.1141665
6.7197414
6.7809888
7.1395972
6.6576102
6.9213685
6.4911352
6.5608034
6.9628758
6.6806822
6.1735967
6.5585465
7.8497359
6.9445849
6.8405636
6.6068064
6.0785376
6.8107874
5.6067963
6.4141541
6.2149942
6.6801123
7.1821157
6.9732453
6.6338281
6.1907918
6.6003057
6.3759501
6.9808594
6.60066
7.3506314
6.7760373
6.2711217
6.8696773
7.138685
6.6842496
7.1213695
7.0170839
7.033992
6.7476932
6.8221916
6.7897111
6.7918792
6.2747653
6.7931586
6.3341304
6.8279215
6.3231162
7.270414
7.0674904
6.5580491
7.533286
7.1867381
7.0496338
5.953666
6.2359209
6.4469657
6.5672647
6.1987678
6.9353558
6.4942219
6.6280612
6.4845461
6.6569431
7.2039402
6.00441
6.3298903
6.4936223
6.8777739
6.2168107
6.3334471
6.7034848
5.9200858
6.7223745
6.4181606
6.5434566
6.3944234
6.2064115
6.1609083
7.1674476
7.7380069
8.181245
8.3277722
9.2572978
8.9993009
8.6690647
8.7494104
8.0092928
8.0375097
7.8930707
7.2095569
6.7129846
5.8903207
6.1415392
6.5109574
6.33131
6.8777815
6.6275189
5.8630203
6.6570766
6.7204229
7.1457123
6.5419581
6.6085105
5.9399417
6.3575833
5.9706018
6.5045808
6.268053
6.0775599
6.5783201
6.2651218
7.0548384
7.4142506
6.6371785
6.6857186
5.8465158
7.1608383
6.3663506
6.7464083
6.5446053
6.7286787
6.5676424
6.6489498
6.2014652
6.6696999
6.0825416
6.6293372
6.7583876
6.5857102
6.8119959
7.0214687
6.0929792
6.144905
6.4578674
6.8503822
6.8194807
6.5569097
6.9072741
7.4685894
6.2858497
6.3931049
6.024588
6.780043
7.0576843
6.620857
7.1682701
6.6732706
6.8512777
7.1397428
6.9801986
6.8782376
7.2942767
6.4176459
6.585932
6.8709399
6.6262723
6.5488115
7.0298139
6.5698689
6.9279675
6.7113196
6.6167733
6.9512613
6.8890288
6.0607621
6.6730088
6.4160131
6.8619097
6.5512784
6.8146968
7.2895187
7.4573794
7.1190897
6.2214356
7.3695288
7.2226604
6.9149234
7.730316
6.6273537
7.4718112
6.3655686
6.6312196
6.3208281
6.9707232
6.8963121
6.536091
6.2330289
5.749628
6.4028279
6.2227073
7.0076041
7.1635429
6.0101042
6.1055284
6.5806134
7.1148184
7.2293765
7.3107552
6.6115348
6.5136955
6.372814
6.9663469
7.04645
6.1868949
6.7076289
6.5610025
6.9855342
7.1884355
7.2092688
6.9425862
6.6031722
6.5810975
6.3201611
7.1960982
6.4235264
6.0306372
6.4502485
7.3034825
6.8546962
6.6226332
6.8365183
6.9054872
6.9440299
6.7124766
7.6556142
7.2163537
5.8922773
6.4636549
6.8078306
7.0062145
6.7133485
6.8228217
6.7483053
6.3769646
7.687687
6.8165436
7.780684
6.5765748
6.8136732
6.4397828
6.6095397
7.2678518
7.1930664
6.5620981
6.9265411
6.7050532
7.1499889
6.5318549
7.3827048
6.2193269
6.8888968
6.1933074
6.4882116
6.3271384
7.3100986
6.6691289
6.8520339
6.1899436
6.3504109
6.8401828
6.6513778
6.9374348
7.1233873
6.3456494
6.326497
6.8608282
6.6447494
6.6948311
6.3583183
6.334714
6.8373443
7.2243417
6.450215
6.9250571
6.9530158
6.7615093
6.8579629
6.3743787
5.6853969
6.0214633
6.4721108
6.1861828
6.8736628
7.8974286
7.5476794
8.3660247
8.6853527
9.581124
8.7256814
9.0017153
7.8488073
7.5614728
7.5223068
7.1063926
6.493153
6.5228997
6.128033
6.5450809
6.0669407
6.4541223
6.5119937
6.9366754
6.004462
6.5500618
5.8233865
6.5375044
6.8037582
6.1102943
6.4531646
7.0201699
7.2001641
6.5807675
7.1365056
6.5206152
6.2526738
6.5411072
5.9273213
6.2705323
6.3473251
7.0962805
6.6633564
7.3456188
6.7467217
6.7124521
6.4962024
6.2660798
6.6634743
6.4791198
6.0367418
6.812866
6.5582038
6.7181295
6.4450894
6.9267103
6.445822
6.8232571
6.9402664
6.6430508
6.3452825
6.7793809
7.093455
5.8742314
6.7526997
6.762862
6.8610726
6.5881696
6.8566634
6.5224701
6.8256198
7.1900272
6.7260031
6.3557852
6.721283
6.9225876
6.6587894
7.3822207
6.5947632
6.6007903
7.3703797
6.8918537
6.9804963
7.2795035
6.5346054
6.7104472
7.1056618
6.4816167
6.8694639
6.3642518
6.9907611
7.6573502
6.7591227
6.6693338
7.4421477
6.468677
6.6789501
6.8077186
7.0473457
6.4121068
6.4575262
6.934026
6.7491585
6.1922637
6.1744382
6.1712449
6.8074196
6.9697178
7.0298457
6.3622401
6.0068544
6.9818161
6.7284615
6.7533531
6.6079
6.643306
7.4722888
6.7023767
6.9513122
5.9467559
6.2029269
6.4672185
6.8149802
6.8954565
7.7000224
6.1018033
6.112735
6.6546856
6.4343632
6.3710053
7.1168996
6.6001907
6.9354814
6.836199
6.1604862
7.0468479
6.6640025
6.5119945
6.7026251
6.9073245
7.1738544
6.798237
6.1140337
7.0724911
6.5553206
7.4511084
6.9884838
7.005006
6.6322709
6.4441667
6.4866211
6.2743624
6.4514975
7.2226824
6.5559263
6.7776879
7.4033076
6.6332117
6.7445494
7.0789355
6.8946878
6.9932642
6.6982883
6.8037457
7.4767223
7.6471352
6.8571311
6.5800802
6.8059811
6.6237299
6.5508716
6.0805102
6.2194238
6.7889977
6.5376363
7.2752517
6.066644
6.3821657
6.8983049
6.8656621
6.5251218
6.314172
5.8018667
6.5317831
6.8658632
6.6446928
6.1571777
7.0279717
6.9160251
6.5686999
6.670789
6.667585
6.7068113
6.9290881
6.485044
7.2151454
6.1912452
6.4794154
6.2600382
6.2406509
5.7812792
6.7466185
6.2685708
6.1324635
6.2560368
6.0037916
6.3314365
7.0061049
6.9750676
7.5513997
8.0254625
8.6050901
8.32963
8.5608681
8.9221189
8.3768697
8.7303105
7.4679889
7.7888566
7.4791749
6.1374029
6.8227522
6.5243821
6.3533187
6.2208719
6.2604468
6.690691
6.1177826
6.1516053
7.5774549
7.0360834
6.8772236
6.8488152
6.5004965
5.8584639
6.4384518
6.7951913
6.7615268
7.1309296
6.9877526
6.7299777
6.3533546
6.4541275
6.7512482
6.3835873
6.3934195
7.1247247
6.5298933
5.9877585
5.7587206
6.6718354
6.4005714
6.4311491
6.5277065
6.5939452
6.1983017
6.5905065
5.7776296
6.2702241
6.4723684
6.7238938
6.7240532
7.1144544
7.270102
6.8366567
6.3804123
6.8897286
7.1791867
7.1125784
6.7283827
6.1448139
6.2073211
6.572878
6.9049947
6.4892417
6.1424061
7.2247674
6.5904963
7.1346828
6.9237143
6.2711251
6.7806535
7.0123919
6.5031641
6.4999486
6.8799758
6.3712817
6.5046774
7.2565722
6.6312212
6.9302888
6.5769187
6.1818323
6.5808027
6.5696812
6.8553133
6.6115874
7.198435
6.0300121
6.9456935
6.60066
7.1412831
6.8055604
7.3911995
6.6469933
6.6810784
6.9780027
7.1945752
6.3475766
5.7874442
6.6886819
6.8532273
7.3304987
6.6623577
6.7943884
7.011121
6.5283542
6.3802149
6.6738848
6.0945706
6.9493484
6.3718413
6.1773579
6.7519259
6.9091807
6.6221579
6.9088455
6.9724724
6.9653884
6.6321249
6.829384
6.5531511
7.325445
6.4903394
6.3283171
6.5254698
6.4999692
6.2811284
6.2817295
7.407711
6.7851442
6.4140097
7.1596776
6.4010208
7.3346377
6.6507724
6.4721062
7.2545091
6.5511157
6.76335
7.0323528
6.8687601
6.5206486
5.971103
6.4670682
7.0156245
7.1631642
6.8520003
7.1072437
6.8809078
7.303931
7.3414893
6.5815235
6.8275512
7.0652036
7.3506603
6.925302
6.6771731
6.8587997
6.3707435
6.6706679
6.5480678
6.9382812
6.7785622
7.2491002
6.8735723
6.3554427
6.924522
6.3872503
6.8376489
7.6458544
6.5660842
6.8055324
7.1391559
6.3298045
7.1597978
6.5398728
7.00188
6.4900701
7.3382251
7.1369034
6.4330161
7.3551175
6.535338
6.9421093
6.7066227
6.638175
7.4006947
6.0637218
6.0716515
6.9240842
5.7896526
6.8677452
6.9995337
5.8632786
6.3478176
6.0657376
6.5693284
6.0028139
6.5910534
6.1837351
7.0735319
7.1396347
6.885834
7.3488651
8.2412174
7.8191357
9.2129866
9.3529971
8.9777031
7.8802216
7.9800721
8.238117
7.3810553
6.8444247
6.7273931
6.8631663
6.3819405
6.2701052
6.2289571
6.4205006
6.3130019
6.1338059
6.0918031
6.6676723
6.2583417
6.1174882
5.9763755
5.9755411
6.7671644
6.373646
6.7418612
6.9652213
6.4100608
6.781713
7.5946581
6.4043906
6.697649
6.4455871
6.9983449
6.4300992
6.4237583
6.8083142
6.5518527
6.303574
5.7484341
6.0326925
6.3775006
6.8752572
6.841778
6.7845705
6.9649641
6.5053271
6.7229148
6.5568329
6.7482562
6.5105225
6.9668183
5.9950812
7.484642
6.5187778
6.1785237
6.2411375
6.6745432
7.17758
6.3566916
6.8469422
6.3807128
7.0675657
6.5033756
6.4312964
7.5751576
6.8646759
7.2499794
7.1186214
6.8387547
7.2669067
6.7172714
6.9645212
6.178044
6.3023226
7.04661
6.6273738
6.6063733
6.903915
5.7953076
6.6450511
6.3955415
6.9969076
6.8314415
6.2461996
6.76279
6.7154345
6.9963871
6.5656486
6.2945579
6.7916936
7.0077573
6.955171
7.0474213
6.4491477
6.4809196
6.5493817
7.0311885
6.9062356
6.9314554
7.1610988
7.0338113
6.6947689
6.8205282
7.5945121
7.2999697
6.5920042
6.061617
6.6130215
6.810275
6.0118001
7.2479849
7.2915997
6.755636
6.6131149
7.0414336
7.0338196
6.6820248
6.5216298
6.8264769
7.4272081
6.2150303
7.4034774
6.072253
6.4465324
6.9451651
7.1455587
6.3865873
6.6611588
6.424305
6.1827482
7.1873384
6.5797081
6.7714533
7.5514182
6.8880087
6.7501857
7.029775
6.8500101
6.3081477
7.0350179
6.7631467
6.726668
7.0453705
6.8332293
6.5547666
6.3077759
7.0038976
7.0749329
6.8561211
6.8343584
6.7863878
6.7756892
6.7413268
7.3569416
7.2746984
6.70035
7.147058
6.6528477
6.6015235
6.7942084
6.9176329
6.6082085
6.2609506
7.0797634
6.6129066
6.7685986
6.979006
6.7912312
6.7384867
6.8638962
6.9155179
6.4940791
6.8218434
6.917246
6.8221202
6.0996852
7.0697557
6.2503618
7.3685821
6.4222714
6.5877658
7.0780042
6.1313173
6.7937036
6.8755426
6.8014816
6.3276621
6.770477
6.2331184
6.6719152
6.2833355
6.4708958
5.9844557
6.3747347
5.975742
5.8809347
5.4435806
6.6462417
7.3211298
6.8119917
7.9189167
7.7508236
7.9857841
8.6109513
8.7370872
9.0800868
8.4081629
8.3584665
7.9977826
7.4476587
7.0173203
6.4813516
5.8460664
6.486624
5.9758222
6.7471001
6.2146385
6.6831313
7.0058104
6.2528973
6.1946068
6.8563836
6.6086921
6.503964
6.5632681
6.2332069
6.903212
6.3377512
6.9457837
6.347916
7.1053056
6.641288
5.3679043
6.4416107
6.9819117
6.3905706
6.2863076
6.6981086
7.1083308
6.8578834
6.6224299
6.7729707
6.7741371
6.5125274
6.7289189
6.5751567
6.8427305
6.8126261
6.0453243
6.375151
6.1191236
6.6159816
5.7268947
6.5557876
7.0163243
6.8034112
7.1986761
6.6645271
6.488574
6.0028033
7.6771203
6.7989073
7.0891124
6.8904656
6.5449231
6.5702814
5.7444579
6.3131036
6.551135
6.4823496
7.0325052
6.9310216
6.5704174
6.3162994
7.0528129
6.7298932
6.8851582
6.8896068
6.7152452
7.0282494
6.8453748
6.7774748
6.3612068
6.7749293
7.1034049
6.6069026
6.9102204
6.9978263
8.0074469
6.4909067
6.6836057
6.5989794
6.1858372
6.8288027
6.8818829
6.6242445
6.7431632
6.7216542
6.6468103
6.4402921
6.4905928
6.4165321
7.0217725
6.7503077
6.8828689
6.497424
5.9486133
6.7786422
6.9945074
7.188318
6.0777113
6.8711962
6.8193703
6.777285
6.6885734
7.4583562
6.2762887
6.7854294
6.8754684
5.9696341
6.8943519
7.2760938
6.6225683
6.6209061
6.1845866
6.8435062
7.118234
6.2590432
6.2538306
6.535117
6.795979
7.179766
6.9705143
6.7291915
6.4440439
6.7828093
6.9618287
6.4896607
6.8461457
6.861174
7.2568689
7.3428377
6.0621393
7.1699212
6.5167403
6.2884521
6.5528837
6.6212107
6.9370148
6.7191892
6.2935742
6.6695597
6.0856366
7.4126452
6.5989126
7.1004544
7.1199284
6.6248942
6.3179829
6.3163622
7.1922597
6.8251765
7.2681003
6.6947481
5.7736045
6.4335719
7.1180295
6.8778367
7.4806582
6.8897884
6.0884027
7.659869
7.1318671
6.163187
6.7927737
6.6733266
6.4061849
6.01071
6.3353387
6.7928351
6.4817889
6.3689652
6.6884052
7.6459708
6.7320009
6.9281483
6.4172293
6.0366827
6.1978579
6.8031097
6.6180432
6.5623459
6.8824533
7.2694774
6.7806584
6.2046031
6.3527867
6.5524916
6.1863671
6.7918586
6.7729426
6.7544129
6.1770664
6.7120204
7.2021086
8.4323793
8.5002897
9.4420496
8.9149131
8.7760527
8.4960681
8.5908833
8.0147011
7.2298847
6.5026309
6.3494021
6.1540316
6.5451486
6.6697486
6.9261346
6.7488681
5.9762642
6.7768049
6.4473615
6.1543837
6.3647737
6.3859392
6.4707352
6.5430803
6.4392481
6.3434596
6.9716253
7.0519898
6.7141657
6.5361583
7.0426637
6.3718696
6.3971254
6.5312648
6.8830841
6.4718441
6.7157087
6.4724983
6.5935253
5.7691401
7.0531281
6.9069984
6.1629095
5.6530612
7.2005557
6.6021262
6.9297739
6.8020754
6.7349297
7.0195772
6.7582814
5.9414146
6.8345658
6.4525281
6.6526337
6.6622452
6.7285495
6.4111153
6.4259716
6.2376721
7.0508862
6.6751809
6.8097492
7.0275892
6.2370161
6.2649804
6.6239795
6.9686659
6.3845502
6.4285156
6.9100725
6.8277167
6.9186641
6.9893832
7.1212195
6.1095165
6.8141887
6.8979377
6.1227543
6.7949112
7.1598026
6.1903902
6.7758286
6.544242
7.0247849
6.3396482
6.3365655
7.2449204
6.9406149
7.273121
7.0847598
6.9904982
6.804988
6.2649427
6.7574498
6.8372387
6.9497576
6.4182682
6.7942033
7.4035222
6.5534681
6.7997412
6.8265183
6.4163464
6.8956326
6.839249
5.8696789
7.5899133
7.2750969
7.2135202
7.0811912
6.601804
6.2808672
6.5540374
6.9182299
7.4756308
6.3846896
7.4594978
6.3358689
7.0110009
6.6827829
5.9788897
7.6662284
6.3080913
6.4950425
6.5911057
6.6193893
6.839729
6.8833278
7.5435687
7.2925157
7.1207685
6.5137752
7.1623562
6.6855137
6.6518629
6.9644559
6.3122888
5.8591908
6.6051092
6.4441265
7.0796169
6.6616641
7.2991914
6.5634472
6.9945768
6.963666
6.9268708
6.4369611
6.8425294
6.7725912
6.6038273
6.7056984
6.6589917
6.7237838
6.5473143
6.413049
6.6482339
6.7817038
7.2647009
6.6497449
7.4533443
6.3601074
7.581662
6.9066159
6.0085118
7.0647614
5.9665168
6.9077937
7.6031852
6.6977747
6.912411
6.9820558
6.5895631
7.0373082
6.5895937
7.0390329
6.3162019
6.6963905
6.5311797
6.3284774
6.6531681
6.0880457
6.0258266
6.0956841
6.3391015
6.9555814
6.658668
7.0874145
6.9897096
6.4198012
6.0503238
6.5003813
6.3097308
6.8184874
6.0152169
6.8616098
6.3352303
6.5039348
6.1721891
6.3095234
6.86407
7.3379757
7.182829
8.2013666
8.2921054
8.9178141
9.275652
7.9617701
8.148223
7.8084743
6.5566896
6.0283807
5.9457019
6.7753659
6.9162382
6.0710826
6.1408736
6.3965673
6.6650538
6.709537
7.3385893
6.5970794
6.0325408
7.3584332
6.1362597
6.245952
6.8497718
6.5757463
6.5355604
6.5122159
6.0282709
6.0485435
5.9320702
6.863105
6.2444962
5.9303026
6.7584885
6.4848775
6.0919119
6.688715
6.7446728
6.7685424
6.3515064
6.4474357
6.4181601
6.6416043
6.771203
7.1952845
6.3496089
6.3445356
6.5338715
7.0349395
6.4707566
6.9677088
6.3444764
6.3193933
7.3190878
6.9922379
6.9026745
6.6924876
6.4853541
7.1301745
7.1137038
6.0300873
6.258588
6.5520585
7.2658733
6.8564824
7.1997721
6.4938219
6.8886945
6.4972127
6.0276782
6.8752791
6.7746242
6.4747088
6.5540333
6.4680661
6.9549358
6.3701755
6.9816788
6.65078
6.6715404
6.4316087
6.4465764
6.5079529
6.4155348
6.4954147
6.5195238
6.1907931
6.1062752
5.5880903
6.9643835
6.3949227
6.8427778
6.6123472
7.0738074
6.9021032
7.314173
6.8492067
6.9618722
6.6181492
6.4174143
6.1142037
6.2464064
7.4194738
6.2737511
6.9517743
6.7855656
7.018219
6.6761845
6.6574764
6.9959817
6.6413702
6.8505092
7.2906783
6.9918758
6.5372406
6.656548
7.2905775
6.0916525
6.8792028
7.3393347
6.764264
6.8344513
7.1218511
7.6243314
7.1177514
6.5480912
6.7621138
6.5030855
6.7640608
5.8464711
6.3831156
6.9696702
6.9390424
6.2615218
6.9518101
6.835202
7.1513863
6.8348914
6.4069583
6.4241331
6.2965409
6.8493612
7.0767355
6.6206733
6.6587987
6.5945019
5.9958373
6.3469009
6.6640485
6.9424222
6.5038595
6.3652175
6.4056875
7.1383964
6.9738805
6.9437664
7.1822937
7.2111486
6.6556717
6.2447048
6.3439756
7.2473974
7.0663396
6.3680349
6.6846887
6.7960104
6.8642044
6.7770954
6.4687461
7.1933189
6.5727746
6.4043929
6.0254231
6.2522122
7.7624467
6.4863087
7.2656495
6.5149692
7.0927785
6.487395
6.4436943
6.8428014
6.7497607
6.9500715
6.5010066
6.8991383
6.4278953
6.9988598
6.9384572
6.8011674
6.2440482
6.0019881
6.335187
6.5365128
5.8244038
6.5222417
6.8939822
6.0938231
6.3256358
6.084579
6.68808
6.6496918
7.7672041
8.0684328
8.2672806
8.4943096
9.3707371
8.12174
8.8219262
8.6915326
7.9470413
7.9153378
6.7267508
6.6227576
6.9812307
5.9945817
6.8019585
5.6682082
6.2442879
6.8949221
6.5862369
6.398052
6.5365456
6.1304963
5.9294403
5.7284104
6.7366496
5.8103917
6.677693
5.8517062
6.7482324
6.6630466
6.642124
6.4371562
7.050586
6.8960697
6.1171035
6.3848534
6.7355047
6.4379934
6.9825056
6.1083517
6.7764488
6.8513523
6.7093054
6.6926036
6.1118615
7.2432067
6.5675721
6.1657718
6.2693171
6.0985188
6.3198619
6.9188984
6.5663025
6.7813634
6.9927214
6.4401053
6.9736422
6.6204081
6.5789654
6.8136828
6.6448559
6.493151
7.3468023
6.748148
6.7381535
6.6086648
6.2097052
7.228774
6.399441
6.8025351
6.781171
7.1899214
6.6652122
6.4534851
6.5481914
6.811383
6.688589
6.2088327
7.147258
6.5806066
7.7046696
6.7544026
6.6646979
6.8120979
6.8628766
7.0050948
7.7838702
6.0722713
6.4408651
6.5637993
6.9353584
6.6793029
7.0306491
6.2992216
7.252556
6.9192234
6.9235401
6.3393239
6.5769909
6.8615017
6.5132956
7.1055072
6.5620262
6.5046181
6.9749999
6.4445388
7.1232157
6.1930025
6.4855878
7.521968
6.4418974
6.5852654
6.8640499
6.8933868
7.8568743
7.2842627
6.5701072
7.0088287
7.2923654
6.741551
5.8506037
6.6449935
6.2734381
6.9790078
6.7193951
7.1528986
6.3799524
7.1920216
6.3247145
7.3266818
6.8272932
7.2068753
6.2254324
7.0834045
6.5374215
6.1837038
7.2326643
6.913862
6.7008232
6.8454677
6.5786654
6.2500169
5.96901
6.1171566
6.5841514
7.011741
6.7406826
6.8303049
6.6297541
6.9371088
7.1249408
6.5408888
6.3452962
7.023608
6.5787134
6.0106466
6.9622959
7.0940075
7.1533843
7.0288537
6.8802958
6.9562143
7.6348851
6.927328
6.7583332
7.3913027
7.2734195
7.4597516
7.1615908
7.0092194
7.3006857
6.7179024
6.6511417
6.4582661
7.409536
7.639623
7.1410038
6.5091721
6.2593701
6.3722479
6.7114621
6.1882218
6.0890922
6.1253524
6.8584711
5.925938
6.8742468
6.848512
6.2945018
6.33568
6.4731824
6.4311647
6.9572361
6.5462629
6.1910642
6.6288901
6.7270936
5.6236167
6.7209332
5.8843017
5.6715768
6.5580345
7.2235848
7.5283983
7.3227529
8.1482974
8.2435466
8.6181044
9.2508964
9.0194057
9.000191
8.5134627
7.5784952
7.5163391
6.8722066
6.1211428
6.5465705
6.3572226
6.133666
6.3742819
6.0425828
7.0926001
5.8024811
5.863071
6.8637404
6.2025608
6.2504665
6.2710239
6.8460142
6.5544387
6.6961581
5.813343
5.842571
6.6119178
5.8256864
7.2717564
6.6999697
7.0693518
5.9161926
6.7793148
6.763611
7.0088987
6.4496526
6.087573
6.3311007
6.422897
6.4787569
6.5201645
6.6951477
7.3875256
6.3067328
6.3899241
7.3268036
7.594014
6.3955083
5.9531159
6.8557052
6.4062302
6.6410526
6.6525965
6.810763
6.1999505
6.7788202
6.5336589
6.1319964
6.6568467
6.338234
7.8327328
6.7788041
6.7230771
6.6738113
6.7158973
7.2158557
6.2406585
6.4724143
7.1394246
6.936067
6.6876897
7.2669367
6.7225839
7.1154872
6.7588196
7.430455
7.0904563
7.0240674
6.4794439
6.6550577
6.9641205
6.9282797
6.2856894
6.9236774
6.9524531
6.1584038
6.3888081
7.3673312
6.6161714
6.3962057
6.6850341
7.2875617
6.9806076
5.977127
6.6135481
6.2240347
6.5910969
6.0883636
7.0504747
7.165069
7.0966144
7.1344418
7.2260801
6.454866
6.5693585
6.2408846
6.0235941
6.409663
6.2681916
6.7800147
6.6195813
6.9233377
6.4102791
6.88727
6.8331774
6.1458258
6.0262868
5.885943
6.5146634
6.7913563
6.9515446
6.3874539
6.6008868
5.9094623
7.4275756
6.4651574
6.9004224
6.1595561
6.5755194
7.1194387
6.3061084
6.946805
6.3176038
7.0024217
6.9448702
6.7137207
7.4319665
6.1581777
6.9607784
7.4269547
6.8763963
7.0251974
6.6904319
7.1101911
6.1071553
6.3761352
6.4117157
6.3910454
7.7164265
7.4681439
6.5879116
6.985467
6.2206104
6.5755856
6.760518
6.9843978
7.3409112
7.1211625
6.8825876
7.3353565
6.8010624
7.085307
7.6019157
6.3817821
6.6948753
6.4131398
6.1924762
7.1308438
6.5871544
6.1226452
6.3764407
7.0991131
6.9722517
6.7521922
6.1162904
6.4950846
6.3295732
7.1914116
6.4418907
7.008799
7.3250144
7.170858
6.8728888
6.1569926
7.5104639
6.1750087
6.4329776
6.663878
6.9496615
6.7024148
6.2292169
6.0674552
5.7975148
6.1472112
6.1121538
6.2174044
6.1472518
6.6585333
6.5673764
6.7102744
7.1662917
8.3041056
8.1543637
8.8675092
8.6775956
8.557323
9.3618214
8.6691991
7.8440164
8.0753068
6.9514688
6.7351419
6.4511205
6.3418957
6.4361979
5.794108
6.5356588
5.4097988
6.3536053
5.9590756
6.5912249
6.0617121
6.7951042
6.2068391
6.1369085
6.5920123
6.3735471
6.3328399
6.3221839
6.8773191
6.3954756
6.537628
6.3567949
6.5138683
6.2847685
6.7731931
6.6791173
6.8973459
6.6749
6.7024561
6.6514205
7.1595628
6.5324506
6.4652836
6.7248604
6.4699885
6.144062
6.4170329
6.4311927
6.8158045
6.8393774
6.5620074
6.7572452
6.3362963
6.6532423
6.5755788
6.9493655
7.0135806
6.4843993
5.9670852
6.7127504
7.1478063
7.1274136
6.9449088
7.1016636
6.3812172
6.2892489
6.9319892
6.7022752
6.3158653
7.0243733
7.2769602
6.8576699
6.8649216
6.8065006
6.495007
6.7676569
7.0803704
6.331987
7.1172016
7.2304755
6.7276781
6.7169649
7.2934556
6.9574793
6.966497
6.7639114
6.5143143
6.6509574
6.9764165
6.4763059
6.8084838
6.54432
6.3177564
7.4305065
7.1456756
6.7427507
7.2496892
6.8511151
6.9968576
6.9808003
6.9131589
6.8049221
6.7758897
6.5090794
7.2013566
6.6483628
6.7443507
6.3579721
6.7717276
7.3218983
6.3433088
7.0301115
6.2114045
6.9607746
7.3360652
6.8064719
6.3273643
7.4037925
6.3667174
6.5079436
6.9240911
6.9004751
6.7312572
6.854793
6.9238336
6.6967495
6.8595142
6.6212324
6.5651739
6.5686262
6.7895695
6.3817123
6.4983711
6.7148661
6.8939462
6.6833873
6.7590813
6.5241138
6.1901697
6.5338688
6.5381094
7.2957177
7.1436497
6.9508971
7.2379818
6.8107213
6.5869213
7.1214777
6.5459261
6.5076
7.0031484
6.6021322
6.4496811
6.5752387
6.6312929
6.3763756
6.6120078
7.0873839
7.7008728
6.6700403
7.1142069
7.5567101
6.8640694
6.7278676
6.9186337
6.8978555
6.4918997
6.8425838
6.5580114
6.3690491
6.8043868
7.0967463
6.9838853
6.7306542
6.9932094
7.1341909
6.6772657
6.6072238
6.9765449
6.706864
7.3898901
6.1846087
6.1106397
6.2719425
6.7219807
6.6682409
6.6008282
7.0405879
6.632891
6.8833267
7.279552
7.0737756
6.3973435
7.3414197
6.78405
6.4167549
5.8711937
6.8578057
6.2282021
6.2873565
6.5410038
6.844657
7.9587889
7.9965837
7.9299088
8.9953173
8.5382724
8.5304587
8.6293448
8.4126301
8.1333007
7.6842743
7.5794448
6.5359498
6.9746259
6.2852499
6.5716981
7.0186654
6.4109185
6.5478487
6.1201073
6.4868943
6.1246092
6.3757125
6.2049618
6.5238599
6.1600547
6.8310264
6.6088051
6.0495491
5.7961034
5.9663733
6.1802691
6.5258352
6.7035732
6.1068137
5.9085172
6.3933652
5.9398352
6.4902333
6.1468621
6.7465587
6.3406484
6.624871
6.2385835
7.2698187
6.6521696
6.5162878
6.1231534
6.7474032
6.2100772
6.2026432
6.3750715
6.4208401
6.4369861
7.2919665
6.9127575
7.1779722
5.6865844
6.5863966
6.6338778
6.5690768
7.3074559
6.4962152
6.4065159
6.8290959
6.2436668
7.3394799
7.1082399
7.6329413
6.9675975
6.8366207
7.2239102
6.8106609
6.7527115
6.4064474
6.4700306
6.746126
7.0079172
7.1264578
6.5146899
6.5829872
6.4288626
6.3123776
6.8895168
6.6882159
7.3203836
6.6585005
7.1473516
6.6283575
6.9891488
7.2808574
6.7504699
6.9015446
5.8337569
6.6434302
6.8948752
6.861322
7.4425698
6.947561
6.8193841
7.0155485
6.3358399
6.6447712
7.0059913
6.7127573
5.883423
7.0308256
6.2474686
6.2870602
6.9194185
6.6689941
6.4680886
6.1683599
6.5269183
5.9407738
6.892866
6.7317867
6.2709649
6.6860675
7.8600515
6.8436108
6.9092396
7.3630889
6.904634
6.763636
6.7871545
6.8795519
7.1610836
6.8726745
7.1990349
6.7190195
7.0698376
6.5653022
7.079495
6.3198671
6.5898076
6.5704406
7.4355602
6.3806824
6.2954585
6.85984
6.307645
6.3667029
6.9355354
6.8659582
7.2623358
6.9025501
7.3176303
7.0794799
7.4099657
6.868356
6.0391665
6.5776279
6.7257155
6.8912442
6.6448853
7.0387847
6.9616341
7.5990209
6.4116884
6.8927932
6.7538703
7.3644844
7.0715181
7.1721904
6.7982492
7.1819173
7.39104
6.5606796
6.4619844
6.8263655
6.5221397
7.2210255
6.6571659
6.3466547
6.7604113
6.435703
6.1818373
6.8586355
6.4986503
6.8316377
7.1283993
6.6728415
6.4521424
6.8141173
7.0204172
6.8467628
6.6548129
6.6437282
6.2599692
6.5899061
6.6247185
6.8657626
6.8929901
6.6403914
6.186703
5.8811603
6.3440363
6.1398396
6.2765066
5.3377949
6.5922683
6.6063412
6.7259988
6.8913352
7.6927319
7.9724718
8.0216381
8.6943979
8.44231
8.5984773
9.1525864
7.570224
7.3027002
8.2325976
6.9255535
6.7084065
6.9484557
5.6029574
6.9894157
6.7271055
5.9379318
6.2581146
6.5436253
6.0757258
6.1802849
6.2755092
6.434387
6.2662234
6.7346033
6.5452422
7.0273318
6.2272846
6.8923768
6.7318624
6.8008647
6.5258468
6.5290292
6.0599431
6.9994437
6.4887846
6.728195
6.8589278
6.4861272
6.6419419
6.4169622
7.0185219
6.2394728
7.0674485
6.9900383
7.1525354
6.7273767
7.1816524
6.6175262
6.580646
6.4808803
6.8103126
6.48463
6.6480689
6.5751816
6.6101486
5.8933112
6.6017828
6.050206
6.8107012
6.9671117
6.4287919
6.9690729
6.870265
6.7346406
7.4176697
7.0490279
6.7483423
7.022655
7.003394
7.3908532
6.2394582
7.0330557
6.8363235
6.4213625
6.1388456
6.4263109
6.7241278
6.9130025
7.0123889
6.6611407
6.6933975
7.0328809
7.1113393
7.2302716
6.0690819
6.3477581
6.9071688
7.193739
6.4845038
6.7113597
6.6492475
6.7947916
6.6504093
7.1037206
6.239381
7.5770503
6.3092309
7.1778295
7.233507
6.7176131
6.8473935
6.5918858
7.0540476
6.8800379
6.846504
7.0820142
6.7281994
7.2100106
6.7512629
7.0197772
6.788727
6.9528996
6.8278457
6.9805371
6.6028403
7.2088177
6.6335293
6.8977252
6.3345924
7.2771051
7.0769046
6.6476886
6.428026
6.6185259
6.9030791
6.9206982
7.0128643
6.5534577
6.775595
6.6972141
6.5293169
7.0734007
6.894895
6.6327878
6.6106085
6.7494637
6.4996098
6.4251655
6.7336955
6.6123222
6.6508004
6.9275472
7.4170166
6.4544646
7.460893
6.8103985
6.5266462
7.0232544
6.9268816
6.5771734
6.8274099
6.2630553
5.8607549
6.9539174
6.4642764
7.1077597
7.1158175
7.2713657
7.1319757
7.1589354
6.7659404
7.7092575
6.9703005
6.9896621
7.3141996
6.4092088
7.9354385
6.3245172
7.2944607
7.2601988
6.4799409
5.9915825
6.3677217
6.7699403
6.8640724
6.8082817
6.5136678
6.668157
7.3604059
6.8508733
6.5910055
6.6770409
6.9984418
6.5210733
6.9533954
6.3392089
6.403727
6.3701067
5.989725
7.1752399
7.0841687
6.2734739
6.6674873
6.9073915
5.9896968
5.9035907
6.064802
6.6556594
6.4372045
6.4700539
7.1425369
6.6793028
7.0472486
7.8970559
8.4696366
8.7175246
8.5363977
8.6067669
8.5247026
8.2310058
7.7670076
7.3222972
6.5205748
6.7905086
6.7531623
6.2555428
6.1810265
6.5190871
6.0502605
7.0311619
6.105015
6.4283712
6.1465795
6.3017738
6.4115871
6.8729037
6.3563963
6.4979587
6.4497178
6.9594588
5.7569579
6.7215313
6.5391377
5.9639482
6.5208197
6.502526
6.5198042
6.7909198
6.5656094
6.8186849
7.2038608
6.8204866
6.5147303
6.314909
7.2698395
6.4370182
6.9728974
6.9003643
6.8331817
6.7260328
6.3670126
6.8681526
6.5369478
6.5873818
6.567858
6.4304641
6.1538981
6.463245
7.0835751
7.3706776
6.6250266
6.9071387
6.8522767
6.0704114
6.7804831
6.3484737
6.0938731
6.4273764
7.3197239
6.7441653
6.3075973
6.9982361
6.9441609
6.6440916
6.969496
6.6535032
6.2826146
6.288868
6.7088374
6.4010538
6.5636743
6.7798593
6.8142347
6.1736496
6.8773071
6.7251326
7.0012852
7.0803602
6.2668108
6.9977679
6.8190249
7.24731
6.8305641
6.4832998
5.9935542
6.3783516
6.3075769
6.8179364
6.2555979
6.2360402
6.8131394
7.4738909
6.4350242
6.162101
5.8909904
6.4282771
6.9626848
6.6951658
6.7681377
7.0139726
7.3084151
6.0380154
6.5986125
6.4863966
6.475365
5.7660316
6.2208602
7.1598845
6.9673197
6.7641299
7.0272049
6.2459277
6.7015898
6.5904475
6.9906672
7.2848532
6.4026697
7.1665396
6.7811193
7.2390983
7.1290654
6.4106558
7.4772723
6.2209718
6.84048
7.3524854
6.1963286
6.6348234
6.6149908
6.8199005
6.9784522
6.6533916
6.9242579
7.5746483
7.3422189
7.4081735
6.9649195
6.501591
6.8989806
7.0143459
7.1672208
7.0638581
6.5748139
6.3363013
6.3302584
6.6348283
7.0597868
7.4496522
6.8545661
7.2358495
6.4311492
7.3713654
6.8988258
7.3355461
7.1086159
6.5980815
6.4553226
5.9355516
6.7370002
6.7241207
6.6319882
7.1225613
6.7554398
6.9880573
6.995003
6.8114981
6.3582558
6.9049858
6.5305021
6.1469188
7.0347974
7.586175
6.3407895
6.6460431
7.0815676
5.8216366
5.9193815
6.547634
7.0323993
7.908821
7.8431784
7.0007496
6.8401114
6.345664
5.84241
6.3834101
6.4267702
6.3066469
6.800648
6.2217159
6.7799336
6.5984303
6.7724968
6.2537187
7.3874353
7.7760604
7.7182084
8.5233441
8.9500049
9.0465382
9.1807064
9.0181542
8.2702038
7.913326
7.1840157
7.1892906
6.246311
6.7744072
5.8347894
6.6412449
6.3081313
6.4955677
6.2717232
6.3524992
6.5385338
6.7651118
6.8016729
6.6218287
6.979819
6.6501117
6.9669798
7.2207079
6.0684328
6.0875209
6.9778955
6.4532373
6.6887216
7.0961564
6.2708019
6.1457031
6.543876
6.5805694
6.7258321
6.719026
6.0261188
6.4838157
6.4698664
5.7024847
6.0874475
6.8691331
6.167771
6.6709156
5.921169
6.690373
6.910172
7.0076624
6.4169704
6.2128749
6.8737367
6.5632197
6.6215348
7.0802821
7.3240199
6.3422258
6.4867242
6.7017946
6.9213977
7.19271
6.9026292
6.52949
7.0854315
6.927801
6.6493136
6.932381
6.7855526
7.4129846
6.6360552
7.2345422
7.2043345
6.5603447
7.0148019
7.0965068
7.3732359
6.2743685
6.4580454
6.8202583
5.8737489
6.1882589
6.0827058
7.0221012
6.5239426
7.8843964
7.0639505
7.0651524
6.7001119
6.6428787
7.0651708
7.2019486
7.3065637
7.2750937
7.1692226
6.7507172
6.7502127
6.430721
6.7096468
6.9070312
6.2389178
6.6070411
6.6073367
6.7951132
6.6375504
6.6389851
6.269794
6.325996
6.2451551
6.8454971
6.8919432
6.0284719
6.3392005
6.6216839
6.9634546
6.8383186
7.0823079
6.2533576
6.5142683
6.253975
6.7935604
6.4548557
7.0455025
6.1272464
6.7902191
5.9501221
6.3894827
6.7005315
6.8791229
6.8543983
6.1016021
6.9369932
7.0594412
6.4609682
7.1405587
6.5493768
6.442464
6.8300377
7.0060075
6.9331712
6.8715237
6.9815643
6.6437056
7.0370578
7.0130622
6.2156568
6.6031115
7.173596
6.6845754
6.5892935
6.7237749
7.1676876
6.369411
7.1624624
7.1696233
7.0809809
6.6461301
6.4671244
7.2310098
7.0236344
6.9157552
6.9077593
6.9927635
6.9570123
7.2683626
7.0482042
6.8327624
7.1467262
7.4903804
6.8544525
7.1002817
6.3213384
7.1604031
6.5174217
6.603799
6.9662351
6.5574966
5.8736453
5.9464555
6.1711947
6.8945804
6.5034403
6.5455596
6.2671932
7.3734815
6.5794321
6.3679032
6.7668097
6.0512964
6.4244132
6.6370732
7.3126867
6.5818864
6.4973931
6.5616134
6.6093856
5.999457
6.423678
5.7452294
6.7977565
6.4459402
7.2293123
7.7671985
7.8132927
9.0781555
8.5869182
8.7433155
9.0140071
9.0238767
8.0864616
7.1157456
7.4802163
6.3574993
5.7314165
5.9877743
6.937448
7.1314209
6.4607493
6.4346275
5.7532577
5.7671123
6.750899
6.396474
6.2176743
6.3144016
6.3329257
6.4635271
6.1206776
6.6082936
6.6642422
6.8890918
6.3918661
7.1750956
6.4558591
6.7810622
6.4086841
7.2194714
6.4014419
6.9276241
6.4465103
6.9339061
6.9886862
6.5201647
6.4549046
6.369484
6.5085366
6.4179866
5.8957564
6.4983576
6.7091352
6.3180602
6.3587856
6.3727125
6.6050401
6.3134598
6.1737338
7.2180057
6.43123
6.8728653
6.2310675
7.4102387
6.6734684
7.1263115
6.9788732
6.6868845
6.8078973
6.4570097
6.7323337
7.0105445
6.489427
6.4965675
6.6532775
7.0448163
6.3910355
6.3663379
6.6510508
6.6608057
7.0184833
7.1635294
6.3605395
6.0466432
6.1716718
6.3111907
6.2770672
6.7272185
6.605462
7.361164
7.0364514
6.7502411
6.2960328
6.8188032
6.8897152
6.9265171
6.6223114
6.3848391
7.3472719
6.5541595
6.7962688
7.039754
6.7898732
6.5125222
7.3926194
5.7363185
6.936187
7.324005
6.7098473
6.7176348
6.5287216
7.6708581
7.3676108
6.7474963
6.6648012
6.4533901
7.3358467
6.158302
6.4355645
6.5958135
6.3519032
6.3027675
7.0249644
6.7338329
6.5778552
6.6638838
6.71993
6.4046077
6.6808657
6.4377763
7.0629047
6.9432435
6.6299628
6.8840345
6.4409945
6.5312858
6.5273426
6.8375483
6.7800133
6.000435
6.3928407
6.5772259
6.679377
6.5676924
7.0050986
7.2453582
7.1372176
6.904928
7.1854549
7.2229413
7.0078068
7.56743
6.7252912
6.9503486
6.6495405
6.5819003
6.4530017
6.5547886
6.3892567
6.7771688
6.6251114
7.4731731
7.0877337
6.1655359
7.327725
6.709926
6.3189988
7.1089465
7.3488582
6.9792488
6.9912874
6.5209977
6.7440089
6.7631784
6.6934655
7.0346114
6.4704852
6.6392829
6.592385
6.9154376
7.2015821
7.395341
7.4933967
6.3337468
6.416162
7.4174
6.8305884
6.4829572
7.2148003
6.108065
6.5162207
6.3387825
7.10909
7.422908
6.9478676
7.2307275
7.2055979
6.8409083
6.2995432
6.7600489
6.4836216
5.8705211
6.1008118
6.8702594
6.0383301
6.7412765
6.6448415
7.4497431
7.3213592
7.6593364
8.5530487
8.4881155
9.3103644
9.0151892
8.2921977
7.9101981
6.7815744
7.0360627
7.5779349
6.5852658
6.0163335
6.4553687
6.6029498
5.8345383
6.5573037
6.9149074
6.4854522
6.3274395
6.1100982
6.5362658
6.1313704
6.3856294
6.3540026
6.4922821
6.6843538
6.3522077
6.5360796
5.8681135
6.9054179
6.1586839
6.4548598
6.6436229
6.9151776
6.2799828
6.5900461
6.3598583
6.1728564
6.566391
6.5161189
6.5647499
6.194042
6.3873081
6.7047774
6.8401273
6.478712
7.3453822
6.2193179
6.1178714
7.2522908
6.3226403
6.5991772
6.3186511
6.2304924
6.3803018
6.6089935
6.5223021
7.0148066
6.5532522
7.1853411
6.4019819
6.1258885
6.8204498
7.2045067
6.6228195
7.1926989
6.6688172
6.5230289
6.2961619
7.1610316
6.2746649
6.6378118
6.4681192
6.4703981
6.6537475
6.8136824
6.8484053
6.443717
6.8876411
6.9528868
6.7074744
6.6748866
6.3070968
6.8762353
7.396556
7.0605862
6.7369284
6.9959186
6.8493262
6.9945679
6.8461687
6.8035809
7.4154597
6.8661329
7.0391144
7.0914037
7.2770025
6.7217048
7.0153909
6.8045679
6.6191123
6.741704
7.006348
6.4801628
7.3530039
7.4655669
6.4869445
6.6300707
6.9328965
6.9108953
7.2787368
6.7332578
7.3571078
6.4472557
6.7900936
6.8811607
6.3978564
6.7821686
6.6606808
7.0812427
6.9643829
7.4543095
7.1330809
6.7985372
6.0414837
6.7109095
6.4721145
7.6551394
6.7889318
6.9006811
6.9081557
6.7178643
6.0749473
7.5433385
6.8944958
6.4624838
6.674862
7.3569544
6.8181312
6.8268917
6.6335053
6.2088251
6.5142968
6.4754149
6.8467727
6.8782866
6.7517615
7.0937968
6.6898209
6.9078018
6.4949981
6.4519972
6.7300445
7.1787992
6.9427112
7.0014983
6.6440277
6.6524366
7.1445524
7.0967531
6.4333714
6.3282323
7.2505237
6.8296942
6.7799063
6.96189
6.7798637
6.8997159
6.97531
6.1747109
6.76552
6.7458556
6.9112438
6.8743309
6.294402
6.7793869
6.3556537
6.5773319
6.7495475
7.0478481
6.8640871
6.789893
6.1569418
6.7315957
7.1292846
5.8976233
6.8630992
5.7686608
6.5758179
6.8191554
6.0311098
6.8844315
6.6361212
6.8290678
6.5623386
6.1429897
6.3619785
6.2824725
5.6226849
6.6567309
6.8565226
7.2289302
7.4422749
7.7957027
7.2838706
9.1799258
8.5637805
8.5701775
9.0921835
8.1178245
7.5157751
7.640182
6.8148848
6.2498753
7.0572193
6.2851361
6.0700883
5.8527792
6.2079264
6.9417461
6.6152621
6.0151399
6.364364
6.8125061
7.0935967
6.4614289
6.2237092
6.638058
6.10625
6.890091
6.2063515
6.3471872
5.8342655
6.2234527
6.676613
7.0287762
6.9953556
5.9759872
6.4464269
6.5767728
6.5745264
6.6613086
6.6474892
6.4050443
6.5102663
6.3604361
6.3634715
6.9892997
6.1873458
6.5348704
6.2471519
6.9314519
6.3021854
6.0538485
6.206705
6.8943606
7.48978
6.4739417
6.9990687
7.2941767
7.165415
7.314479
6.4852972
7.0995546
6.6184592
6.1737788
6.6265958
6.8927843
7.4472535
7.0962243
6.854498
7.1285606
6.5672749
6.269104
6.5025708
6.3159927
7.1279467
6.7093069
6.314279
6.6823537
6.4632809
6.662283
7.333454
7.378622
6.541322
6.6797798
6.9788462
6.8627412
6.6285719
7.2029091
6.2884548
7.7738406
6.6859303
6.970311
6.5554998
6.4377178
7.244717
6.8344369
6.9064867
6.8670926
7.0807888
7.4715075
7.0692124
7.0575101
7.2640469
7.1365879
6.369239
6.7010531
6.1913002
6.9978501
7.4925651
7.3518131
7.1049649
6.4087153
6.4838922
6.8273356
6.7106238
7.0850758
7.2522961
6.665945
6.733123
7.1702026
6.9432565
6.1307104
6.4560489
6.4782595
6.2633864
6.6920276
6.8092207
7.2820491
7.0245072
7.195536
6.4777116
6.8805746
7.3726414
6.5173732
7.012166
7.2370011
6.3705459
6.9427582
6.4203819
6.5822033
6.510522
6.5719721
6.6443089
6.4665446
6.5446658
6.9876098
7.4455816
6.242556
6.7181209
6.9479614
7.0014162
7.1768211
6.8691963
6.1675788
7.0901052
7.2063979
6.6642578
6.7710825
6.6717564
6.828496
6.5397525
7.3349972
6.4357588
6.7472323
7.3853904
7.0143287
6.7044822
6.6603037
6.9449998
7.1181287
7.0488376
7.4102367
6.3821488
6.6925675
6.000971
6.9131648
7.0350362
6.7907003
6.0983271
5.9578007
7.392019
6.2421467
7.0406905
6.6257439
6.6606474
6.4613906
6.9030683
6.6311229
6.2897988
6.572947
6.6835867
6.5904359
6.7865538
6.7104683
5.548328
6.1246757
6.2872959
6.4875846
6.5265305
6.5321672
6.2575056
7.1404866
6.4968829
6.6289609
7.6893388
8.3411315
8.7834626
8.8856288
9.2876422
8.8792026
9.2764175
8.7266658
7.7946558
7.5830885
7.2357517
7.1817943
6.3704177
6.8510999
6.769485
6.7252622
6.8095585
6.3398178
6.632029
6.8486145
6.304439
6.010288
6.7567427
6.6052941
6.7285516
6.5551052
6.2629562
6.7607987
6.9294938
6.6892544
6.5000749
6.5647541
6.4945936
6.062717
6.6792779
6.977792
6.6019288
6.3685329
6.8281912
7.03285
6.7503501
6.7848636
6.6830064
6.4047711
6.6695409
7.062724
6.6190234
6.9045269
6.6173211
6.8910734
6.4379305
6.2241891
5.7778547
6.9641675
6.8198961
6.9626998
6.9039238
6.0242222
6.7287198
7.4346834
7.0585769
6.653506
6.5546394
6.5931845
6.8566824
6.8294252
6.424947
6.5897985
6.6539983
7.1706869
7.1412086
6.8733198
6.2877285
6.8499469
7.0534311
6.6877057
6.2704687
6.4732501
7.0530998
6.7542829
6.923531
6.9166435
7.0816777
7.1785094
6.9853621
7.0271768
6.9575277
6.3912619
7.1673825
7.2124216
6.9432604
6.7302318
6.6073209
6.2339865
6.8311307
7.0474141
7.1796698
6.7729812
6.6392592
7.4643673
7.4610762
7.6958888
6.4489626
6.2991463
6.8408993
6.9057085
7.0165593
6.5757925
6.6855403
6.6445266
6.0217764
6.4520784
6.7852155
6.6043294
7.0752899
6.9822938
6.8719916
6.9923387
7.5295919
6.6656886
7.7576278
7.4558349
7.2336886
6.0225841
6.5484149
6.2666469
6.8356993
6.3635834
6.5952123
7.313532
6.2999645
6.0683376
6.4799902
6.6640017
7.0161595
6.8042757
6.6280314
6.8478703
6.3336887
6.8727493
7.1482878
6.7524142
7.2040698
6.6354189
7.1419937
6.27587
6.796948
7.0134092
6.4274636
6.2669683
6.5985791
6.7229901
7.3281936
6.4633409
7.2611061
6.7728729
6.6580822
6.7585302
7.6900979
6.6592829
7.4570341
6.9220437
6.7217549
7.1543618
6.9148304
6.8079036
7.000549
6.6217285
7.5929225
6.8170898
7.0821329
7.1408798
6.4104023
7.3115163
7.1289097
6.4803343
6.8481343
6.3875439
7.1708257
6.7000419
7.030728
6.7121942
6.7903882
6.5048952
6.5180335
6.6195818
7.5985096
6.9960564
6.8804045
6.84589
7.5382818
6.7912862
6.8453533
6.3302258
6.4829996
6.0112074
6.5144488
6.0192815
6.7311746
6.6566216
6.3551796
6.4659592
6.3052156
7.5186105
7.9214158
8.0027132
9.2780506
8.9325479
9.1854695
8.7886598
8.8878893
7.831783
7.5839295
6.8072434
6.2688394
5.8717196
6.9754304
5.5989856
7.2421341
6.6461674
5.5679719
6.3461588
6.7114026
6.142174
6.7380311
6.0813192
6.5267798
7.080701
6.6701662
6.9940613
6.5845439
6.3051956
6.752349
6.5801093
7.3578202
6.2730243
6.6170754
6.0325188
7.1893805
6.8273622
7.1107664
6.4851542
6.7487028
7.0674172
6.4701401
6.7931959
6.0535101
6.4702081
6.5352249
6.3178105
6.0093398
6.7277125
6.729966
6.8731323
7.0027519
6.312451
6.7382371
6.7243149
7.1385339
7.0363545
6.4164158
6.0101791
6.385928
7.0603967
6.6872349
6.6136986
6.4490398
6.4959016
6.9334897
7.0439521
6.9496685
6.8274243
7.1978482
6.6924334
6.7539004
6.3931274
6.8351366
6.7047639
6.3780125
6.9679643
6.861125
7.5321128
6.9535366
6.953946
6.7139287
6.3708421
6.3556734
6.9267331
7.3744582
6.9615015
7.1770255
6.6364203
6.9374424
6.7211937
6.5232937
7.0986956
6.7149197
5.6151189
7.544654
6.7081024
6.9634429
6.6498124
6.8786007
6.7021454
6.7769851
6.6171131
6.3666299
6.5881664
6.8701803
6.6870478
7.3583968
7.9193758
6.4769221
6.433265
6.3656098
6.3945961
6.7180107
6.8893756
6.8180087
6.2705315
7.3314444
7.1190491
6.3906362
6.6711625
6.5780512
6.7370915
6.5203235
6.4920807
6.8279473
6.6466654
6.7591857
6.6283405
6.7057401
6.8401789
6.5149957
7.2789597
6.9866463
5.7279866
6.5117892
7.0011776
7.1104721
6.2257248
7.4215784
6.7451114
6.1972024
6.6008332
6.5168135
7.3482022
5.9393585
6.477709
6.9248913
7.0782573
6.2114368
7.3123839
6.2723292
6.4695909
6.6701987
7.1156795
7.0262721
6.8419059
7.1985942
6.6664206
7.4788623
6.9244377
6.2002575
6.5313881
6.5008325
6.4468308
7.1174927
6.3876213
6.8199257
6.7544779
6.5102461
6.8207465
6.4968221
7.452144
6.1944291
6.8292931
6.5428361
6.6515319
6.0618987
7.0252321
6.7709349
7.1003475
6.9226304
6.392055
6.2323694
6.4786699
6.8645892
6.2561538
6.5782796
5.8513499
6.3212951
6.8673272
6.9958016
7.1609594
6.7772671
6.6953048
6.1235895
5.6588451
6.6824896
6.4715139
6.3868666
6.515034
6.1659552
6.930481
7.0695089
6.9619088
7.189303
7.8510419
8.5806383
9.0506775
9.2805921
8.0910325
8.8203392
7.1205753
7.2211886
7.0130178
6.8865555
6.5983946
6.3540742
6.7684576
6.3739119
6.6902239
6.3314821
6.0375077
5.9556745
6.8693596
6.2842045
6.6512575
6.4875608
6.2938275
6.6824833
6.1944808
6.8546893
7.0088214
7.2118073
6.7831555
6.9103791
6.8552376
6.152388
6.5168039
6.7169872
6.1319079
6.4962982
6.0494933
6.4817576
6.6654065
6.7058912
6.8359817
6.9473235
6.4992742
6.9600186
6.9876367
6.5612305
6.64149
6.9406178
6.5752561
6.3277982
6.4095894
6.3789979
6.2339596
7.1017745
5.8890732
6.635483
6.7385503
6.7672655
6.6100423
6.1380791
6.5061666
6.3250402
6.9475193
6.5427001
6.8881544
6.6862341
6.5206127
6.4845623
6.2406514
6.4606752
6.5310721
6.7187166
6.9151576
6.8461805
7.0809949
6.7780562
7.1432879
6.6918359
6.6513345
7.0653288
6.9007273
6.8318272
6.6310765
6.7426797
6.490776
6.747823
6.892993
7.4173502
6.6544733
6.6619538
6.9045752
6.8748351
6.8236294
6.8603003
6.0523626
7.3121605
7.0314826
6.6429673
6.5548171
6.5215105
6.1510419
6.6670501
7.2069626
6.1743749
6.1063518
6.7509755
6.2550452
6.6524292
6.478619
6.9216996
6.5984825
6.8056399
6.9175204
6.9116339
6.9411776
6.6501368
5.8350747
6.8544631
6.411985
6.9591989
6.2632394
7.1435412
6.4224378
6.5143687
6.9091323
7.6384197
6.4059466
7.4302455
6.9436894
6.425557
7.0462279
6.8430799
6.5839879
6.5962852
5.9916638
6.6997763
6.9587887
6.8590756
6.6356757
7.1589159
6.6115305
6.990661
6.3263668
6.6876987
6.8672303
7.0301275
6.7744912
6.9085224
7.2504626
7.266001
6.6090863
6.9078743
7.3995456
6.8825417
6.8317983
7.3514165
7.1741058
6.623901
6.8714225
6.4689865
6.7968527
7.2265905
6.3875534
7.2526381
6.696082
6.558784
6.5249286
6.0023214
6.7446987
6.3485095
6.1310793
6.7281312
6.5099571
6.5604567
6.7565217
6.7515667
6.5588778
6.6031481
6.5609969
6.6139748
6.3396248
6.2002967
6.2685311
6.8877072
6.6920384
7.0270375
7.1319554
6.3839599
6.2742302
5.9731114
6.5609302
6.8989208
7.1811419
6.6084926
6.3159159
6.4825094
6.0022049
6.2539319
6.1897188
5.7561434
6.2539935
6.7032417
7.3535988
7.3161043
8.2575563
7.720209
8.4293235
8.6974997
8.875251
8.4868775
8.5212685
8.1018846
7.5701974
7.063572
6.7732656
6.5333114
6.9253652
6.2180205
6.3580016
5.7431498
6.4296918
6.4102449
6.1576693
6.5586546
6.3626303
6.3883246
6.0870418
6.8585856
6.1645659
6.5503757
6.5545428
6.7790862
6.8068172
6.0223974
7.0433556
6.7947702
6.224351
6.209319
6.4066294
6.3593066
6.9216216
6.9415255
6.6391396
6.9644163
6.6211339
7.0768729
7.0364266
6.1047973
6.8932267
6.7178194
6.5176895
6.9349485
6.4514233
6.4280663
6.8521658
6.6003194
6.675801
7.0697012
6.4543965
6.7605304
6.9575297
6.2535574
6.7285369
6.6264668
6.8412686
6.7681519
6.6809092
6.3823553
7.0358431
7.2491479
6.8744029
7.006589
6.7280661
6.5622701
6.7976474
6.1784446
7.3814631
7.1085193
6.0735454
6.2683017
6.9755044
6.6997031
6.748598
6.1599315
6.8070044
6.8276218
6.9978756
6.208412
7.1421394
6.362383
6.7826753
7.3268046
7.2579581
6.925401
7.1777357
6.3483198
7.0686485
7.1021974
6.3745345
6.8120653
7.830577
7.1402308
7.2462629
7.0073668
6.3263434
6.0487777
6.729965
6.3795498
6.2189595
6.7080775
6.9218102
7.6038427
6.5878674
6.7938913
7.7368584
6.3715356
6.8547984
6.6601473
7.2534542
6.771837
7.2062076
6.864229
6.9938722
6.0836388
6.4552782
6.2343994
6.1638543
7.101373
7.1209764
6.678673
6.3590545
7.1211737
7.443413
7.0234581
6.4520688
6.591713
6.9933822
6.733307
7.0944445
6.3422309
7.30536
6.6521764
6.4935877
6.3199288
7.0805235
6.6340876
6.6573047
6.6186868
6.3705756
6.4946746
6.7153588
7.5725422
6.6189356
7.0591422
6.4071702
7.0870183
7.0955897
7.0279935
6.919181
6.096384
6.7469661
7.0452463
6.1423435
6.6830993
7.2885327
6.8526458
7.377996
6.7432815
7.3339367
6.8998525
7.0740363
6.2400092
6.205853
6.9429084
6.6256479
6.0763915
6.5603073
6.5968312
6.3898521
6.2430115
6.7730607
6.8157087
6.389433
7.1857991
6.5074446
5.9481438
6.6785782
6.944735
5.9092955
7.3032094
6.4911323
6.2917956
6.7062597
6.4179352
6.9757172
7.1173569
6.7638194
6.5779362
5.8920303
6.2039267
6.4281701
5.5815816
5.8752562
6.2359958
5.7385985
5.9111408
6.4928349
6.6309493
6.9344104
8.1542192
7.961167
7.9254869
8.5481761
9.324651
9.5474442
9.09642
8.1485918
8.2967678
7.742865
7.2167378
6.6898951
6.3383995
6.3963116
6.085707
6.5326203
6.3110157
6.8587631
6.639274
6.4647725
6.8987051
6.7452189
6.5673625
6.128942
6.9891118
6.4426843
6.378311
6.5212898
6.9101324
6.5544113
6.0842985
6.4048101
6.2080398
6.4081988
6.0413255
6.6432518
6.3808605
6.1789576
6.2922956
7.0058345
6.082393
6.7420451
6.6432786
6.1329373
6.5950083
6.2334191
6.8930726
6.7864772
6.5361708
6.2095
6.3852849
6.3934278
6.7093666
7.046769
6.8641596
6.4332878
5.894741
6.3443779
6.8020892
6.2725636
6.688066
7.2415592
7.2988068
6.7558512
7.3528679
6.9034244
6.9555273
6.9184555
6.5253344
6.7834171
6.9239164
7.174031
5.7969189
6.4401439
7.2793636
7.0041743
6.8415777
6.9557308
7.203189
6.4059497
6.9139496
6.0555052
6.8094716
6.7960184
7.2319181
6.4848093
6.9642864
7.1179908
6.4953081
6.876718
6.7782635
6.6948956
6.593382
6.5319392
6.3425467
6.5864697
6.4116608
6.7427127
7.3461728
6.6490343
7.1239204
6.9427662
7.2658186
6.7575739
6.722763
6.7033364
6.3040054
7.5212572
6.2255318
6.713561
6.6227405
6.7875821
6.2239677
7.051602
6.7438237
6.6742419
7.2925083
7.0126973
7.4037611
7.2523266
6.5250635
6.6341724
7.1971283
6.5737661
6.7318437
6.5918422
6.9163096
7.132732
6.5019314
6.5420318
7.0872134
7.4005439
7.1167178
6.2458044
6.734378
6.8777991
6.7872804
6.561888
6.1023741
7.2120512
7.1576048
7.0309008
6.618501
6.2676613
6.9785604
6.4374173
6.670206
7.2280626
7.1201379
6.6567314
6.9171693
6.5317481
6.5062825
6.7258027
6.2979784
7.5072649
7.0087175
6.554462
6.8673811
7.2297384
6.8249158
6.8039095
7.1813162
7.4230251
7.1953868
6.89086
7.0187063
6.8086968
6.6120988
6.533378
6.4659142
6.4427514
6.7640731
6.1650744
6.6820454
6.1632329
6.6094777
6.3653211
6.7446189
7.0544858
6.060784
6.4096008
6.4094661
6.4974474
6.5974048
6.292038
6.5440124
6.9920191
6.6739489
6.4330806
6.7343963
6.8237142
5.9545757
6.5345118
7.3241088
6.5314828
6.5054644
6.9503886
5.8187034
6.5395072
6.084896
6.3628919
6.5557217
6.4822021
6.5417883
7.4004629
7.5139083
8.0607107
8.7133999
9.0975748
8.9070285
8.4754739
8.8496046
8.6908689
7.4777872
7.4070612
7.2597174
6.5027263
6.4838105
6.2886948
5.9836411
6.060036
5.8990351
6.3170328
7.0752522
6.5075351
7.0797811
6.1336563
6.3029224
7.1395708
6.0010119
6.0216816
7.2578189
6.878761
6.5980958
6.5338428
6.92783
6.7534785
6.7916803
7.0679131
7.0116056
6.649742
6.0746138
7.0932427
6.2048846
5.6461721
6.7224074
6.6358017
6.3596013
6.6358725
7.0988362
6.7091709
6.4723139
6.6192133
5.9586392
6.0223315
6.1795487
6.1514148
7.4267964
6.8338394
6.9901305
6.5116451
6.3458938
6.9185356
6.7933539
6.4811292
5.9985466
7.452206
7.4467215
6.2891055
7.1573712
6.5796112
6.4580273
6.3011006
6.5186863
6.7522891
6.1725943
6.7729727
6.1845662
6.6957278
6.4015067
7.2300948
6.4968664
6.67562
6.9201179
6.6822131
6.5437757
6.0985984
6.6124012
7.1873537
6.9168669
6.3257614
7.1179581
6.7082165
7.0370887
6.8168363
5.8910722
6.3606029
7.3581031
6.6887921
6.530866
6.8620529
6.9751161
6.4877152
6.8746056
6.2852863
6.5040553
6.5256907
6.8306305
7.4778465
6.9834049
6.4186531
6.1313325
6.4664651
7.3195471
6.9553411
6.3527233
7.2591597
6.4432553
6.7463023
6.4971552
6.755163
6.5032358
6.4819604
6.4818757
7.5219472
6.0087037
7.1431975
6.5864871
6.9664301
7.1474323
6.2106208
7.0373753
6.6645946
6.3739965
6.7480503
6.7255212
6.8753491
6.9111834
6.6456081
7.0403002
6.8752784
7.2372134
7.2932872
6.576263
6.6564021
7.1608078
7.5192921
7.2459392
6.759654
6.8592747
7.3828095
6.3795498
6.7278844
6.523418
7.3432613
6.3516616
6.6247872
6.8426433
6.9436689
6.6713135
6.4393599
6.7159509
6.7179848
6.4261122
6.3887795
6.9663721
7.1701484
7.1099071
6.9099488
6.6753639
6.2687063
6.4920006
6.6073158
6.7085616
6.8910561
6.882674
7.0865543
6.9075142
6.2352442
7.0509478
6.3540128
6.5791842
6.4493534
6.9614978
6.0437223
6.925428
6.4035749
6.3568678
6.1778122
6.3642916
6.2134881
6.3346467
7.1138655
6.6017873
6.275216
7.1152492
6.8800591
6.7955986
6.4183123
6.8546341
6.3004642
6.178424
6.1557685
6.1226921
6.4507313
6.5622049
5.5653129
6.2314906
6.1134399
7.3459333
7.8967839
7.4318592
8.4213729
8.7237186
8.8628922
9.2629889
8.9997623
8.6071599
7.7353018
8.0874917
6.7060341
6.6002368
6.3539307
6.6808441
6.7512694
6.7922832
6.8553372
5.8271116
6.5150335
6.4032923
6.1835525
6.5381434
6.3717701
6.0456364
6.2079306
6.147972
6.172688
6.4597068
6.5837351
6.1613837
5.9479753
6.1641663
6.7867164
6.8826774
6.026079
6.6903026
6.389149
6.2094585
6.6847123
6.0578683
6.0624427
6.435091
5.7092167
6.2740253
6.0755022
5.9096064
6.2454817
6.5926543
6.4791453
7.4404376
6.5526707
6.3040148
6.9023368
6.8687798
6.2833611
6.6229451
6.2266052
6.5473378
6.5663445
7.4750625
6.9411382
6.2442811
6.1656349
6.4392352
6.8358637
7.4288268
6.4970333
6.692444
6.1627113
7.2098036
6.9792593
7.0877448
7.0330205
5.9768168
7.178932
6.7338629
6.5281984
6.5862648
7.1663187
7.4718136
7.1395981
7.4375783
6.5555878
6.187209
6.6120626
6.3541619
6.363555
6.6377069
6.2372509
6.459456
6.7573503
6.8408512
6.5021733
6.6992984
6.8077139
6.6845087
7.0818693
6.4794373
6.9696516
7.3623224
7.4051351
6.5833951
6.9473324
6.3929442
6.9354516
6.1337203
6.113805
6.4151394
6.0727208
6.9473488
6.7864629
7.130094
6.8750441
7.0035566
6.3903438
7.0848753
6.7496361
6.5135481
7.186311
7.0393456
6.6897435
6.8636009
6.6191405
6.4427894
6.8384433
6.6583561
6.6139533
6.89565
6.5813359
6.6375269
7.3842538
5.909067
6.4730897
6.2843282
7.5228915
6.6638992
7.3733719
6.8268659
6.7831192
6.3189908
6.3579863
6.7334634
6.5265719
7.5343629
6.3320546
7.2811158
6.9191222
6.6523626
6.3925739
6.5198928
6.5658957
6.3143418
7.3910713
6.5149384
6.3640957
6.8263425
6.8475172
6.3518737
6.6922752
6.9811209
7.3719284
6.7585136
7.2353138
6.2836955
6.7378375
6.9544195
5.9642237
6.9541109
6.6064249
6.4036364
7.2401914
6.9102577
6.4978708
6.6420781
6.2201514
6.3356057
7.221478
7.4612619
6.974302
6.413962
6.8186299
6.4867672
6.4259901
7.0601646
7.4366351
6.7932271
7.0581035
6.4292466
6.5896323
6.5631015
7.1867786
6.5223667
6.6987922
6.8963748
6.4789528
6.2723958
6.4773628
6.2212826
6.196393
6.6574871
6.2682462
6.57759
5.8698225
6.4335104
6.2443797
6.9750487
6.9202629
7.8804785
8.4709684
8.4199907
8.8217413
9.2511622
8.9553549
8.5074131
7.3598462
7.3219435
6.3242499
6.4995176
6.8202334
6.5374201
7.2388791
6.2377498
6.59498
6.3707197
6.028884
6.4117056
6.2064616
6.1246382
6.2642068
6.4348949
7.520126
6.3619144
6.3009056
6.2889497
6.5595039
6.9898556
6.1251879
5.6406314
6.5479339
6.9531968
5.6756616
6.8686837
7.0484258
6.6452623
5.8460216
6.5874995
6.7913518
6.891588
6.8455462
6.8546556
7.0015141
6.1311568
6.9674498
5.9419054
6.6400064
6.7624323
7.0503882
6.273574
6.7081332
7.140089
6.7874597
6.9229927
6.6581107
6.4670104
7.0671962
6.9368375
7.097657
6.5200549
6.7104941
7.0817116
6.3111342
6.9220191
6.9074076
7.3415106
7.4971652
7.2503655
6.3384712
6.1470718
6.2574496
7.0314267
6.5616001
6.3585187
6.6895295
6.7209254
6.2499861
6.7693462
6.3517876
6.4470835
7.0981712
6.5795346
6.5183644
7.3418082
7.1649098
6.9428742
6.9168071
6.4600766
6.5648099
7.1141243
6.842558
6.6173267
7.575575
6.5791662
6.5497446
6.6147255
5.9063208
6.9959602
7.1760065
6.9811137
6.3099178
6.2939992
7.0865972
6.5208374
7.1923037
6.3352075
6.9610104
6.3991344
6.5598245
6.5062321
7.2290584
7.0598992
6.8326769
7.2422528
6.4012088
6.117502
6.9233473
6.7827248
6.7855047
6.4133192
7.0251589
6.9468216
6.264735
6.7434564
7.2127646
6.7253364
7.5187206
6.7869325
6.6676861
6.2799539
6.7677754
6.983745
7.4667005
6.4564857
6.6812629
6.7890218
6.8856142
6.9210926
7.3143038
7.0262657
6.5503137
7.6601048
6.5537375
6.9190468
7.3189228
7.3442888
6.4021316
6.7156534
6.5101093
6.7477941
6.7419411
6.3232947
6.9419518
6.9573851
6.7471094
6.6729968
6.713323
6.039827
6.430457
6.5488787
6.9467657
6.9735474
6.7128589
7.0887501
6.9645116
7.1897397
6.8251643
6.8553761
7.0325726
6.8114748
7.1807229
6.527033
6.9320178
6.7038004
6.9227743
6.4468968
7.0289863
5.8283901
6.4506569
7.520611
7.3100358
6.7158284
6.3120775
6.4716133
6.4338796
6.9000875
7.306182
6.6392446
6.6701708
6.6304382
7.1378692
6.5652766
6.7381931
6.2042735
6.7856889
5.9538189
6.5311872
5.9389553
7.4392019
6.3635068
6.0759199
6.4148868
7.2377357
7.0258782
6.8349791
8.1415547
8.1656112
8.3173965
9.3455716
9.0337164
8.2906664
9.0390878
8.3259546
6.9076299
7.1054323
6.9125422
6.205561
6.5121275
6.2847197
6.2501274
5.9416041
6.8641093
6.5601033
6.3848377
6.4950391
6.9720135
6.3840304
6.2114509
6.6407627
6.849224
6.3661272
6.0492597
5.888071
6.1059515
7.1049728
6.9007035
6.0916172
6.4594317
6.6463496
6.312258
6.683747
6.3114688
6.1634389
6.2204354
6.8092553
6.4182251
6.4362241
6.5660714
6.2345534
6.3981555
6.8456404
6.9721367
6.5886566
6.7060661
6.3498879
6.4897852
6.5377659
6.906158
6.5972268
7.1190859
6.287361
6.7832131
6.4280248
6.6998965
6.7353042
5.9062817
6.6321085
6.470425
7.4670401
7.1519075
6.6980738
6.5428292
6.6786524
6.849928
7.1424916
6.7261983
7.0743426
6.6486286
7.192605
6.5932326
6.3444919
7.2072624
7.1294735
6.5849949
6.5591274
7.2973851
6.6660141
6.8531951
7.2340296
6.8123509
6.4622503
6.7177102
7.2536382
6.5564023
7.2474149
6.7607742
6.4572666
6.4856461
7.160631
6.944476
6.9214095
6.2648034
7.2673535
6.7708755
6.9558288
7.3028138
6.3640843
6.9405141
6.2821151
6.0397842
7.2431676
6.7886767
6.9214762
6.383523
6.8925878
6.4646704
6.9412106
6.4365089
6.900419
7.7796368
7.0716811
6.5843214
6.6719569
6.1917466
6.8009533
7.1561708
7.1932841
6.5219603
6.8976765
6.8747549
6.7810066
6.4957697
6.488806
6.7616307
6.6031647
6.5997741
6.9592633
7.0275767
6.7391861
6.8763265
7.227497
6.5411786
6.8988147
6.9475817
6.6684381
6.6718847
6.7526605
6.4770159
7.3115677
6.7619277
6.4737012
6.639076
7.3060065
6.1114847
6.9754082
7.1189277
7.0991483
6.3058399
7.4911865
6.7057856
6.9285684
6.5880823
6.8217741
6.3562186
6.7331843
6.5890203
6.7876369
7.0173795
6.8925025
7.2264072
6.8802016
5.7986719
6.6155945
7.2186864
7.1731776
7.5232483
6.482137
7.2318
6.7738904
6.9747901
6.8086244
6.8518278
6.7749828
6.5252429
5.7994187
6.225909
6.090976
6.4906158
5.7471754
6.8207691
7.0537936
6.1314032
6.6449717
6.4990294
6.5123015
6.9899633
6.6056025
6.4555485
6.2075557
6.6393022
6.6197382
6.4598109
6.4622892
6.5142793
6.6250259
6.0192917
6.4329009
6.7011442
6.8399203
7.2385056
7.1470132
8.1937713
8.1786625
8.6628106
9.5496712
